-9.919671103310000149e+01 1.930240497000000133e+01
-9.919628607170000123e+01 1.930227817209999941e+01
-9.919595354770000029e+01 1.930219896599999885e+01
-9.919543342299999722e+01 1.930210217129999961e+01
-9.919505367050000189e+01 1.930205302870000139e+01
-9.919483521280000105e+01 1.930203442119999835e+01
-9.919446781770000143e+01 1.930201283310000093e+01
-9.919402101820000439e+01 1.930201330810000115e+01
-9.919345113609999487e+01 1.930204841429999973e+01
-9.919293423370000085e+01 1.930210545730000149e+01
-9.919158442680000576e+01 1.930225436399999950e+01
-9.918956389080000235e+01 1.930247778380000057e+01
-9.918828299400000503e+01 1.930262265669999877e+01
-9.918807957980000367e+01 1.930264640549999910e+01
-9.918624696630000415e+01 1.930283939990000164e+01
-9.918598152799999923e+01 1.930286556389999930e+01
-9.918576074649999441e+01 1.930288932759999909e+01
-9.918418862800000113e+01 1.930307030630000042e+01
-9.918364783510000393e+01 1.930312969919999944e+01
-9.918320811030000073e+01 1.930317726199999839e+01
-9.918282360370000106e+01 1.930322237149999864e+01
-9.918234902720000434e+01 1.930327953919999828e+01
-9.918143003119999435e+01 1.930336517379999961e+01
-9.918126133299999481e+01 1.930337475640000022e+01
-9.918066096719999791e+01 1.930341066009999906e+01
-9.918036728399999902e+01 1.930342531020000152e+01
-9.917988349949999360e+01 1.930343755650000048e+01
-9.917940663330000461e+01 1.930344023849999857e+01
-9.917928754529999935e+01 1.930344035570000116e+01
-9.917855561870000258e+01 1.930341518050000005e+01
-9.917732397829999513e+01 1.930333155650000165e+01
-9.917713164549999760e+01 1.930331555709999947e+01
-9.917679900289999750e+01 1.930327282120000021e+01
-9.917654937909999546e+01 1.930323110020000144e+01
-9.917588819510000064e+01 1.930314756730000170e+01
-9.917528785019999304e+01 1.930306122080000009e+01
-9.917465797539999528e+01 1.930298057219999919e+01
-9.917405131350000147e+01 1.930289422759999951e+01
-9.917341622120000011e+01 1.930281090660000132e+01
-9.917286826909999320e+01 1.930273056229999895e+01
-9.917222685359999446e+01 1.930264124849999874e+01
-9.917167969080000489e+01 1.930256564880000170e+01
-9.917147553819999928e+01 1.930254026249999910e+01
-9.917094860109999388e+01 1.930247114930000052e+01
-9.917033994589999679e+01 1.930238821169999852e+01
-9.917019406629999878e+01 1.930236448810000027e+01
-9.916983944240000426e+01 1.930232187220000029e+01
-9.916967847440000128e+01 1.930229816250000141e+01
-9.916912454420000245e+01 1.930222197370000004e+01
-9.916901643379999598e+01 1.930220688019999997e+01
-9.916848589500000344e+01 1.930213330200000144e+01
-9.916815889730000322e+01 1.930209029399999920e+01
-9.916793260480000072e+01 1.930206177870000062e+01
-9.916756274140000471e+01 1.930201360759999929e+01
-9.916727225180000005e+01 1.930197897660000095e+01
-9.916664380080000285e+01 1.930189243719999936e+01
-9.916650569620000510e+01 1.930187507500000166e+01
-9.916599061869999332e+01 1.930180477709999920e+01
-9.916592048690000638e+01 1.930179521599999859e+01
-9.916555995909999410e+01 1.930174601830000114e+01
-9.916547419920000550e+01 1.930173410880000162e+01
-9.916490118650000340e+01 1.930165449380000098e+01
-9.916427725409999994e+01 1.930156785999999869e+01
-9.916377713059999621e+01 1.930149893160000119e+01
-9.916330217070000685e+01 1.930143350299999838e+01
-9.916318009249999932e+01 1.930141686010000157e+01
-9.916285464070000444e+01 1.930137249159999868e+01
-9.916271349390000012e+01 1.930134912770000000e+01
-9.916256006019999347e+01 1.930132372899999993e+01
-9.916226289799999449e+01 1.930127741889999982e+01
-9.916199939919999906e+01 1.930122282170000148e+01
-9.916159641139999792e+01 1.930112084719999999e+01
-9.916155073800000253e+01 1.930110828449999971e+01
-9.916129585180000561e+01 1.930102894679999892e+01
-9.916077348340000697e+01 1.930082804610000125e+01
-9.916024425150000354e+01 1.930056601640000125e+01
-9.915997321160000411e+01 1.930041565459999831e+01
-9.915971531819999996e+01 1.930024288190000092e+01
-9.915939565610000272e+01 1.930000617119999973e+01
-9.915904610350000326e+01 1.929974732830000050e+01
-9.915887126330000001e+01 1.929959016660000160e+01
-9.915865051510000683e+01 1.929937051779999990e+01
-9.915841828279999959e+01 1.929913290500000045e+01
-9.915790861220000352e+01 1.929848794999999839e+01
-9.915748093790000439e+01 1.929789173220000009e+01
-9.915733448160000307e+01 1.929769891740000176e+01
-9.915680400790000704e+01 1.929701636380000096e+01
-9.915672035839999410e+01 1.929690873250000038e+01
-9.915666453590000629e+01 1.929683683669999894e+01
-9.915642373410000232e+01 1.929689629010000118e+01
-9.915595548880000365e+01 1.929699402640000017e+01
-9.915526535009999520e+01 1.929714108860000010e+01
-9.915521519070000522e+01 1.929715122669999872e+01
-9.915461427179999987e+01 1.929727306230000039e+01
-9.915383419159999789e+01 1.929743363080000051e+01
-9.915214071489999981e+01 1.929782751939999841e+01
-9.915194040590000668e+01 1.929788283019999895e+01
-9.915178747059999864e+01 1.929793273170000134e+01
-9.915162094980000518e+01 1.929800642069999839e+01
-9.915154767149999770e+01 1.929806401349999945e+01
-9.915137880160000350e+01 1.929819551199999950e+01
-9.915110053109999910e+01 1.929838322939999884e+01
-9.915073184370000092e+01 1.929862874810000051e+01
-9.915063239510000415e+01 1.929870019410000026e+01
-9.915009431880000079e+01 1.929908676000000156e+01
-9.914960989290000271e+01 1.929945293029999931e+01
-9.914878659430000596e+01 1.930009264359999932e+01
-9.914818572750000669e+01 1.930057081240000016e+01
-9.914785667649999823e+01 1.930082916199999943e+01
-9.914764210609999395e+01 1.930102855790000049e+01
-9.914741008170000214e+01 1.930128641050000127e+01
-9.914712797549999834e+01 1.930096408460000035e+01
-9.914693041719999655e+01 1.930096700049999825e+01
-9.914659045720000563e+01 1.930092592069999924e+01
-9.914610158029999809e+01 1.930082722719999921e+01
-9.914564607719999856e+01 1.930073312789999918e+01
-9.914524520909999694e+01 1.930062128269999988e+01
-9.914505697510000459e+01 1.930054871509999970e+01
-9.914469814439999595e+01 1.930040945680000064e+01
-9.914462346829999717e+01 1.930038046660000006e+01
-9.914451119250000488e+01 1.930033834339999999e+01
-9.914409635529999321e+01 1.930017693459999961e+01
-9.914375031970000407e+01 1.930004453560000144e+01
-9.914339185369999541e+01 1.929990707700000030e+01
-9.914261623529999667e+01 1.929960636319999878e+01
-9.914236498980000079e+01 1.929985809700000132e+01
-9.914207448569999315e+01 1.930015550739999952e+01
-9.914176726869999356e+01 1.930047002639999931e+01
-9.914125567199999978e+01 1.930102250239999861e+01
-9.914092836199999681e+01 1.930137867079999836e+01
-9.914088820019999559e+01 1.930142223740000063e+01
-9.914067285039999433e+01 1.930165584159999881e+01
-9.914051423860000511e+01 1.930182789679999900e+01
-9.914016119609999578e+01 1.930224384659999970e+01
-9.914012790580000001e+01 1.930228000299999991e+01
-9.913967968160000055e+01 1.930278583899999845e+01
-9.913965361789999520e+01 1.930281363880000001e+01
-9.913937282070000379e+01 1.930311338279999944e+01
-9.913936274819999994e+01 1.930312463830000169e+01
-9.913902947590000281e+01 1.930349634999999964e+01
-9.913894795999999587e+01 1.930358529109999921e+01
-9.913869997800000533e+01 1.930386178839999900e+01
-9.913864456619999999e+01 1.930392541399999828e+01
-9.913844949810000173e+01 1.930414434949999958e+01
-9.913826389460000144e+01 1.930432780170000129e+01
-9.913814976720000516e+01 1.930444652110000092e+01
-9.913789837779999914e+01 1.930471817249999944e+01
-9.913771958259999906e+01 1.930492092449999930e+01
-9.913711661450000179e+01 1.930560467709999983e+01
-9.913640100199999949e+01 1.930631914330000143e+01
-9.913610886669999900e+01 1.930663107270000012e+01
-9.913557603579999977e+01 1.930721706279999950e+01
-9.913472472830000015e+01 1.930829397850000007e+01
-9.913416741359999662e+01 1.930804794009999981e+01
-9.913279857630000436e+01 1.930744290239999827e+01
-9.913249808439999811e+01 1.930732542330000001e+01
-9.913150614660000315e+01 1.930690127460000127e+01
-9.913096511329999316e+01 1.930666801390000131e+01
-9.913045516549999547e+01 1.930644854140000177e+01
-9.913001624640000387e+01 1.930625963549999824e+01
-9.912997153210000079e+01 1.930624032940000134e+01
-9.912947286639999334e+01 1.930602502749999871e+01
-9.912894948359999603e+01 1.930579704859999879e+01
-9.912829839730000003e+01 1.930551809860000034e+01
-9.912781420550000178e+01 1.930531065110000100e+01
-9.912761786820000509e+01 1.930522653159999891e+01
-9.912731782779999889e+01 1.930510057289999892e+01
-9.912708261180000591e+01 1.930500182700000167e+01
-9.912683790559999863e+01 1.930489909750000166e+01
-9.912608340430000453e+01 1.930457372120000059e+01
-9.912482587409999724e+01 1.930404085289999827e+01
-9.912465626370000393e+01 1.930398055319999884e+01
-9.912461022179999759e+01 1.930396294810000057e+01
-9.912297413119999590e+01 1.930328695449999898e+01
-9.912243777809999301e+01 1.930308784329999838e+01
-9.912202695610000092e+01 1.930293658200000095e+01
-9.912093911220000564e+01 1.930259612729999930e+01
-9.911984954300000084e+01 1.930225898429999987e+01
-9.911778673480000634e+01 1.930168311550000126e+01
-9.911741544589999364e+01 1.930157967119999896e+01
-9.911680778029999317e+01 1.930142024350000085e+01
-9.911616581920000613e+01 1.930126395839999986e+01
-9.911567747079999435e+01 1.930114448730000021e+01
-9.911556327809999800e+01 1.930111654990000147e+01
-9.911429422140000156e+01 1.930081373249999999e+01
-9.911365175730000487e+01 1.930067733599999968e+01
-9.911296361780000552e+01 1.930053805580000059e+01
-9.911245337190000271e+01 1.930041615680000078e+01
-9.911195767979999971e+01 1.930029276950000039e+01
-9.911143062419999694e+01 1.930015935309999975e+01
-9.911029892439999855e+01 1.929988802409999948e+01
-9.910992724880000537e+01 1.929979864779999943e+01
-9.910942169209999975e+01 1.929967260249999939e+01
-9.910920741079999630e+01 1.929961826310000106e+01
-9.910880774899999324e+01 1.929960077140000152e+01
-9.910843081880000227e+01 1.929962621059999961e+01
-9.910821584849999510e+01 1.929964243659999923e+01
-9.910738128949999748e+01 1.929969255840000031e+01
-9.910725335819999771e+01 1.929969595940000104e+01
-9.910707636200000081e+01 1.929970770230000099e+01
-9.910657515680000529e+01 1.929973293729999995e+01
-9.910638931100000093e+01 1.929974267589999926e+01
-9.910608388289999482e+01 1.929975981420000153e+01
-9.910556674250000242e+01 1.929979084649999876e+01
-9.910541934420000132e+01 1.929979759229999914e+01
-9.910501652899999669e+01 1.929981749459999918e+01
-9.910494950800000424e+01 1.929982113260000176e+01
-9.910450243260000036e+01 1.929984420259999922e+01
-9.910403582639999343e+01 1.929986813909999910e+01
-9.910376649309999664e+01 1.929988385009999874e+01
-9.910212087220000399e+01 1.929997162120000098e+01
-9.910132900280000001e+01 1.930000945880000174e+01
-9.910102595390000602e+01 1.930001939219999940e+01
-9.910092916680000030e+01 1.930002105000000157e+01
-9.910122254469999348e+01 1.929662771570000146e+01
-9.910136374169999840e+01 1.929520005859999898e+01
-9.910274430920000555e+01 1.929457186699999838e+01
-9.910289245020000237e+01 1.929450555700000081e+01
-9.910375855789999378e+01 1.929411007090000041e+01
-9.910396429559999376e+01 1.929401272590000005e+01
-9.910444571639999367e+01 1.929378493899999825e+01
-9.910462020709999820e+01 1.929370237610000061e+01
-9.910502204440000185e+01 1.929351713209999986e+01
-9.910568395960000032e+01 1.929327960270000020e+01
-9.910573239330000206e+01 1.929326081159999973e+01
-9.910617744740000035e+01 1.929309798859999958e+01
-9.910813710940000476e+01 1.929228113899999997e+01
-9.910929400000000555e+01 1.929178654809999927e+01
-9.911029273459999445e+01 1.929136969409999836e+01
-9.911036157540000602e+01 1.929134161369999845e+01
-9.911160556459999782e+01 1.929080748799999867e+01
-9.911284056069999338e+01 1.929028597499999975e+01
-9.911453313239999829e+01 1.928956370139999876e+01
-9.911490691310000045e+01 1.928940419430000119e+01
-9.911571362050000289e+01 1.928906065709999851e+01
-9.911793224000000180e+01 1.928811787980000148e+01
-9.912164613340000585e+01 1.928653161360000112e+01
-9.912222210980000625e+01 1.928628653839999885e+01
-9.912391017689999728e+01 1.928556911669999963e+01
-9.912433759910000219e+01 1.928543102480000115e+01
-9.912492521519999400e+01 1.928524117619999956e+01
-9.912499901859999341e+01 1.928522075840000127e+01
-9.912520047019999936e+01 1.928516758350000160e+01
-9.912544229089999703e+01 1.928510319709999976e+01
-9.912573747410000635e+01 1.928501862010000067e+01
-9.912758457489999842e+01 1.928450147039999862e+01
-9.912828975280000066e+01 1.928430578849999932e+01
-9.912913428449999742e+01 1.928406766639999859e+01
-9.912952192550000063e+01 1.928395887279999954e+01
-9.913037290059999407e+01 1.928372003919999855e+01
-9.913083196809999720e+01 1.928359114270000063e+01
-9.913141631850000124e+01 1.928342698970000058e+01
-9.913199442769999337e+01 1.928326679950000155e+01
-9.913248429040000076e+01 1.928313106070000060e+01
-9.913401340999999434e+01 1.928270094579999849e+01
-9.913510705119999500e+01 1.928246143630000020e+01
-9.913592874920000497e+01 1.928233524939999910e+01
-9.913647242880000476e+01 1.928227629399999898e+01
-9.913699229789999379e+01 1.928223490450000099e+01
-9.913745884659999774e+01 1.928221063220000175e+01
-9.913788542880000421e+01 1.928220645620000084e+01
-9.913855323849999479e+01 1.928222835020000048e+01
-9.913890419999999892e+01 1.928224322109999989e+01
-9.913926742920000379e+01 1.928226543959999972e+01
-9.913969116319999841e+01 1.928231614199999910e+01
-9.914023291590000042e+01 1.928238518739999918e+01
-9.914089856649999888e+01 1.928249892110000019e+01
-9.914105595409999694e+01 1.928252859339999858e+01
-9.914107988169999430e+01 1.928229272080000101e+01
-9.914119567070000016e+01 1.928119039890000153e+01
-9.914119480079999391e+01 1.928107403679999976e+01
-9.914134756619999678e+01 1.928006948430000023e+01
-9.914146014419999631e+01 1.927915507149999996e+01
-9.914145191699999771e+01 1.927906710770000132e+01
-9.914143236510000179e+01 1.927885807130000018e+01
-9.914150178049999340e+01 1.927838815309999987e+01
-9.914153836020000199e+01 1.927795832789999864e+01
-9.914155784829999618e+01 1.927754396879999987e+01
-9.914164374540000324e+01 1.927709735010000003e+01
-9.914173045340000101e+01 1.927661697839999988e+01
-9.914177252960000430e+01 1.927568694480000033e+01
-9.914191378140000666e+01 1.927511942519999977e+01
-9.914197667979999551e+01 1.927479760800000008e+01
-9.914200168600000040e+01 1.927467571869999929e+01
-9.914208792259999825e+01 1.927394463639999955e+01
-9.914113868249999939e+01 1.927373008529999865e+01
-9.914118814409999914e+01 1.927353455009999905e+01
-9.914141573690000087e+01 1.927277774210000061e+01
-9.914163146949999827e+01 1.927229408110000008e+01
-9.914175992069999666e+01 1.927189282799999859e+01
-9.914186863179999420e+01 1.927145573230000153e+01
-9.914204780789999916e+01 1.927085684920000119e+01
-9.914213928159999512e+01 1.927069294780000064e+01
-9.914221080449999590e+01 1.927067026370000136e+01
-9.914238769450000177e+01 1.927069369679999866e+01
-9.914251784760000419e+01 1.927067756820000000e+01
-9.914260993659999599e+01 1.927062417570000008e+01
-9.914279608920000442e+01 1.927050366630000156e+01
-9.914289578039999640e+01 1.927037244699999974e+01
-9.914299977780000006e+01 1.927024524759999835e+01
-9.914307058159999997e+01 1.927010419499999827e+01
-9.914316488679999395e+01 1.926979969399999959e+01
-9.914336773419999815e+01 1.926947050080000068e+01
-9.914359178670000006e+01 1.926951072539999998e+01
-9.914376342629999783e+01 1.926951058990000121e+01
-9.914394620630000077e+01 1.926954053180000059e+01
-9.914435891850000360e+01 1.926884427939999966e+01
-9.914455176650000112e+01 1.926846550970000038e+01
-9.914467997289999346e+01 1.926823160140000013e+01
-9.914473057749999896e+01 1.926812996250000154e+01
-9.914481022830000256e+01 1.926787059480000153e+01
-9.914490973259999862e+01 1.926755953360000007e+01
-9.914492144039999744e+01 1.926744682509999862e+01
-9.914412686949999909e+01 1.926734387420000161e+01
-9.914385465019999799e+01 1.926730653470000121e+01
-9.914362870349999923e+01 1.926727177509999933e+01
-9.914344052340000246e+01 1.926725322260000084e+01
-9.914322337469999979e+01 1.926723222000000035e+01
-9.914333102380000184e+01 1.926652198029999852e+01
-9.914248751370000434e+01 1.926669262560000107e+01
-9.914240313989999720e+01 1.926662489039999926e+01
-9.914243164559999855e+01 1.926516446950000017e+01
-9.914245500219999485e+01 1.926489121299999852e+01
-9.914249892249999618e+01 1.926437694870000072e+01
-9.914246819359999563e+01 1.926432669660000130e+01
-9.914240261969999324e+01 1.926423507699999860e+01
-9.914237405869999975e+01 1.926416025589999848e+01
-9.914242101799999318e+01 1.926395541930000022e+01
-9.914243610110000304e+01 1.926376500570000161e+01
-9.914242999329999861e+01 1.926359683069999917e+01
-9.914242365309999627e+01 1.926343655350000006e+01
-9.914239453960000503e+01 1.926335265190000001e+01
-9.914235752540000135e+01 1.926329255490000136e+01
-9.914231654920000381e+01 1.926322995660000004e+01
-9.914228566469999748e+01 1.926302673569999868e+01
-9.914225386830000275e+01 1.926254695929999983e+01
-9.914211017930000480e+01 1.926184696360000004e+01
-9.914211491919999730e+01 1.926177638800000125e+01
-9.914212687289999337e+01 1.926172401830000069e+01
-9.914214605050000273e+01 1.926167954719999997e+01
-9.914221900180000091e+01 1.926150959819999997e+01
-9.914226641259999440e+01 1.926140009690000099e+01
-9.914230194499999982e+01 1.926131719520000019e+01
-9.914235032210000043e+01 1.926120019229999869e+01
-9.914241311979999693e+01 1.926105513770000144e+01
-9.914243434269999966e+01 1.926095632999999907e+01
-9.914239681099999757e+01 1.926061853799999923e+01
-9.914239884330000052e+01 1.926046939709999961e+01
-9.914238389950000396e+01 1.926034756379999990e+01
-9.914236668530000429e+01 1.926023446219999968e+01
-9.914225887509999779e+01 1.925999208960000075e+01
-9.914221040089999804e+01 1.925990651809999932e+01
-9.914209526240000514e+01 1.925985482449999964e+01
-9.914202230840000141e+01 1.925978468470000138e+01
-9.914191472989999454e+01 1.925956255039999832e+01
-9.914178885430000321e+01 1.925929545489999839e+01
-9.914172100710000279e+01 1.925922379080000013e+01
-9.914163682010000400e+01 1.925917875489999886e+01
-9.914150429830000633e+01 1.925908036030000048e+01
-9.914141906550000272e+01 1.925901498269999834e+01
-9.914132808399999419e+01 1.925896279179999837e+01
-9.914118819910000013e+01 1.925890051160000027e+01
-9.914106002079999769e+01 1.925883381959999952e+01
-9.914094428999999309e+01 1.925877195940000064e+01
-9.914085601879999388e+01 1.925867747270000052e+01
-9.914075425369999550e+01 1.925854258689999909e+01
-9.914057327179999390e+01 1.925839325320000128e+01
-9.914045422140000596e+01 1.925828855789999849e+01
-9.914033273610000663e+01 1.925813409739999926e+01
-9.914025623460000247e+01 1.925801401109999844e+01
-9.914020768700000019e+01 1.925792230320000087e+01
-9.914017288789999327e+01 1.925786241550000000e+01
-9.914016307560000030e+01 1.925782283010000029e+01
-9.914016042519999417e+01 1.925777395869999964e+01
-9.914017431450000117e+01 1.925770225469999986e+01
-9.914018639280000400e+01 1.925763702069999894e+01
-9.914020655420000594e+01 1.925756410460000012e+01
-9.914025029489999952e+01 1.925747556529999827e+01
-9.914031726160000346e+01 1.925740149980000027e+01
-9.914045380289999798e+01 1.925730961169999844e+01
-9.914063774010000429e+01 1.925719820320000153e+01
-9.914079335089999745e+01 1.925707146939999959e+01
-9.914080079240000032e+01 1.925699969589999938e+01
-9.914078154050000080e+01 1.925694301840000122e+01
-9.914074698650000528e+01 1.925686313819999995e+01
-9.914058855640000445e+01 1.925657669880000000e+01
-9.914053637969999500e+01 1.925652568099999939e+01
-9.914048496329999693e+01 1.925649293180000043e+01
-9.914039061820000143e+01 1.925644305679999846e+01
-9.914022169579999400e+01 1.925637867309999862e+01
-9.914012078189999500e+01 1.925634128969999992e+01
-9.914004445669999654e+01 1.925628059479999976e+01
-9.914000902339999755e+01 1.925623198310000106e+01
-9.913995157909999989e+01 1.925612895929999979e+01
-9.913981829169999571e+01 1.925589238379999912e+01
-9.913973306260000129e+01 1.925572362369999979e+01
-9.913958694670000682e+01 1.925545921999999877e+01
-9.913945702380000569e+01 1.925493402549999900e+01
-9.913939466310000626e+01 1.925469328069999975e+01
-9.913940337920000445e+01 1.925460427670000030e+01
-9.913947876260000669e+01 1.925434222299999831e+01
-9.913949394889999667e+01 1.925423270379999963e+01
-9.913953830580000215e+01 1.925409195450000155e+01
-9.913957744260000027e+01 1.925391009870000047e+01
-9.913961169200000256e+01 1.925378675079999979e+01
-9.913963359829999433e+01 1.925367311879999832e+01
-9.913967098089999297e+01 1.925356637479999833e+01
-9.913969245750000425e+01 1.925343427219999981e+01
-9.913969238510000537e+01 1.925335941219999825e+01
-9.913975869230000626e+01 1.925332438550000091e+01
-9.913979822189999425e+01 1.925332435059999980e+01
-9.913983908379999832e+01 1.925330315860000141e+01
-9.913987786529999369e+01 1.925324580570000066e+01
-9.913994405520000441e+01 1.925309293640000163e+01
-9.913995452380000017e+01 1.925300703890000165e+01
-9.914002895570000362e+01 1.925294134019999959e+01
-9.914008422349999705e+01 1.925286252640000129e+01
-9.914010196200000280e+01 1.925281869470000018e+01
-9.914014473279999606e+01 1.925275237900000036e+01
-9.914018967559999851e+01 1.925259344290000030e+01
-9.914020080740000651e+01 1.925252183030000097e+01
-9.914019636720000506e+01 1.925246770669999918e+01
-9.914017661030000284e+01 1.925241163320000126e+01
-9.914017170079999630e+01 1.925235151029999869e+01
-9.914014250699999309e+01 1.925225489560000014e+01
-9.914013297670000213e+01 1.925220735010000084e+01
-9.914013019310000630e+01 1.925215801359999901e+01
-9.914014061720000370e+01 1.925209207909999876e+01
-9.914015769719999582e+01 1.925201767820000143e+01
-9.914015973809999593e+01 1.925199812460000004e+01
-9.914015621949999968e+01 1.925194545180000105e+01
-9.914015617549999604e+01 1.925190102330000030e+01
-9.914021219990000588e+01 1.925184185150000005e+01
-9.914033514359999799e+01 1.925178828150000143e+01
-9.914042168080000295e+01 1.925162646400000099e+01
-9.914045815990000676e+01 1.925154065519999946e+01
-9.914048475629999757e+01 1.925145252840000154e+01
-9.914051463139999498e+01 1.925140256010000073e+01
-9.914052076110000655e+01 1.925137744850000132e+01
-9.914050165589999608e+01 1.925135540520000177e+01
-9.914048394649999807e+01 1.925128505120000000e+01
-9.914055215649999298e+01 1.925125475249999951e+01
-9.914065838480000536e+01 1.925122585509999951e+01
-9.914068975140000362e+01 1.925122124960000036e+01
-9.914071758629999920e+01 1.925114177669999904e+01
-9.914077249970000594e+01 1.925104430160000035e+01
-9.914079897649999396e+01 1.925097712279999840e+01
-9.914085590470000398e+01 1.925096233849999905e+01
-9.914091825890000109e+01 1.925095532270000120e+01
-9.914095155149999528e+01 1.925094739500000074e+01
-9.914098647010000320e+01 1.925091118470000140e+01
-9.914103391400000476e+01 1.925086955349999940e+01
-9.914107399659999942e+01 1.925082827669999830e+01
-9.914111173290000067e+01 1.925075634990000140e+01
-9.914125465339999721e+01 1.925064765939999845e+01
-9.914126310509999485e+01 1.925061276170000113e+01
-9.914127449030000605e+01 1.925055486089999945e+01
-9.914130889989999673e+01 1.925047848690000052e+01
-9.914135328080000420e+01 1.925039407430000082e+01
-9.914142916679999473e+01 1.925026349950000082e+01
-9.914148397910000199e+01 1.925013138859999984e+01
-9.914156459190000703e+01 1.925000006599999836e+01
-9.914159973069999410e+01 1.924993688809999881e+01
-9.914163144370000680e+01 1.924985863110000039e+01
-9.914169109239999500e+01 1.924975109740000079e+01
-9.914169855629999972e+01 1.924969044599999890e+01
-9.914170262090000563e+01 1.924959094720000152e+01
-9.914170848550000414e+01 1.924955177049999833e+01
-9.914172319870000649e+01 1.924951818450000118e+01
-9.914171575580000706e+01 1.924943425220000037e+01
-9.914171127310000031e+01 1.924936430749999872e+01
-9.914167931640000120e+01 1.924916605680000004e+01
-9.914169192490000171e+01 1.924908357680000037e+01
-9.914172562519999587e+01 1.924899520219999971e+01
-9.914166751330000693e+01 1.924885884720000107e+01
-9.914156318329999351e+01 1.924869090569999841e+01
-9.914137816129999692e+01 1.924858479830000135e+01
-9.914110715879999702e+01 1.924844663569999881e+01
-9.914095860739999466e+01 1.924834544120000146e+01
-9.914081199860000027e+01 1.924827009259999855e+01
-9.914062172549999730e+01 1.924811209900000009e+01
-9.914051749150000603e+01 1.924805534820000119e+01
-9.914036375419999558e+01 1.924798133830000069e+01
-9.914030256869999391e+01 1.924781054480000009e+01
-9.914022882470000297e+01 1.924758144160000128e+01
-9.913998900139999648e+01 1.924734935840000105e+01
-9.913981687529999931e+01 1.924709004199999995e+01
-9.913973814370000071e+01 1.924694769319999921e+01
-9.913961032650000504e+01 1.924672293629999942e+01
-9.913939587779999840e+01 1.924636131800000172e+01
-9.913927596039999912e+01 1.924623786249999924e+01
-9.913904138079999484e+01 1.924604283760000101e+01
-9.913892150430000072e+01 1.924596632949999986e+01
-9.914000385229999779e+01 1.924419281500000167e+01
-9.914019032390000064e+01 1.924385130279999956e+01
-9.914022511989999487e+01 1.924380331729999938e+01
-9.914028598340000542e+01 1.924367396799999952e+01
-9.914033152940000093e+01 1.924362789839999976e+01
-9.914038408380000078e+01 1.924359471789999887e+01
-9.914104704230000209e+01 1.924358782319999861e+01
-9.914109573300000022e+01 1.924359242170000073e+01
-9.914114351150000459e+01 1.924360362210000019e+01
-9.914162146169999801e+01 1.924375463619999849e+01
-9.914165311569999517e+01 1.924374775469999932e+01
-9.914170880759999704e+01 1.924367982580000103e+01
-9.914170672400000228e+01 1.924365402169999939e+01
-9.914165612339999711e+01 1.924358121210000050e+01
-9.914171468729999503e+01 1.924359451269999965e+01
-9.914200542349999523e+01 1.924364433590000090e+01
-9.914205960719999666e+01 1.924368209329999857e+01
-9.914223621879999371e+01 1.924386932870000066e+01
-9.914233146770000360e+01 1.924415902930000044e+01
-9.914331539689999317e+01 1.924448120450000133e+01
-9.914366578679999975e+01 1.924461863399999828e+01
-9.914425539779999497e+01 1.924474026260000059e+01
-9.914419183930000656e+01 1.924457980289999881e+01
-9.914425087360000077e+01 1.924418613610000151e+01
-9.914425291999999956e+01 1.924400073409999834e+01
-9.914425139979999813e+01 1.924366074299999951e+01
-9.914423983730000600e+01 1.924355872050000116e+01
-9.914416736210000636e+01 1.924299853659999826e+01
-9.914412903950000100e+01 1.924270232399999969e+01
-9.914411693050000451e+01 1.924260872340000006e+01
-9.914409573509999518e+01 1.924255724260000022e+01
-9.914408073779999597e+01 1.924237975950000035e+01
-9.914405742309999425e+01 1.924203831390000019e+01
-9.914403171419999694e+01 1.924170214409999957e+01
-9.914400604370000281e+01 1.924146318709999903e+01
-9.914397737189999305e+01 1.924087343889999957e+01
-9.914397492019999447e+01 1.924080881169999913e+01
-9.914394430500000510e+01 1.924018975379999929e+01
-9.914394825559999447e+01 1.924016006220000108e+01
-9.914401148720000378e+01 1.923968448589999980e+01
-9.914417721830000119e+01 1.923967015250000046e+01
-9.914514499130000047e+01 1.923947226559999990e+01
-9.914534470280000278e+01 1.923938557620000012e+01
-9.914560477800000626e+01 1.923932508020000043e+01
-9.914606078360000652e+01 1.923932843700000106e+01
-9.914612031529999570e+01 1.923932898709999861e+01
-9.914621643389999406e+01 1.923946246410000072e+01
-9.914630802359999961e+01 1.923988012939999948e+01
-9.914642390740000621e+01 1.924006251650000010e+01
-9.914658333440000604e+01 1.924025558640000000e+01
-9.914668319839999810e+01 1.924033677599999947e+01
-9.914689650920000474e+01 1.924040987529999924e+01
-9.914701762299999643e+01 1.924042934070000044e+01
-9.914713674950000666e+01 1.924042054679999936e+01
-9.914736014929999897e+01 1.924036536499999883e+01
-9.914751983530000246e+01 1.924025920849999949e+01
-9.914734156350000660e+01 1.923995282939999996e+01
-9.914716618559999972e+01 1.923959612270000008e+01
-9.914701589839999940e+01 1.923929940729999899e+01
-9.914633483859999785e+01 1.923799301600000078e+01
-9.914616865860000416e+01 1.923767424980000129e+01
-9.914615541780000285e+01 1.923764855670000173e+01
-9.914503932319999535e+01 1.923554626150000146e+01
-9.914483786789999442e+01 1.923519638819999855e+01
-9.914445253540000635e+01 1.923452485359999997e+01
-9.914469068399999685e+01 1.923450307890000133e+01
-9.914478216819999545e+01 1.923448001779999927e+01
-9.914480435810000358e+01 1.923445188450000032e+01
-9.914484429210000371e+01 1.923438437569999948e+01
-9.914491978659999916e+01 1.923434073609999828e+01
-9.914506196940000393e+01 1.923433780970000129e+01
-9.914522047760000589e+01 1.923437001770000165e+01
-9.914533208779999995e+01 1.923443830849999969e+01
-9.914539822620000109e+01 1.923445620380000065e+01
-9.914549817699999323e+01 1.923441995809999838e+01
-9.914555784069999333e+01 1.923437068180000153e+01
-9.914563674449999553e+01 1.923432241969999978e+01
-9.914578086849999750e+01 1.923432248450000159e+01
-9.914587508910000224e+01 1.923431739389999962e+01
-9.914592245580000451e+01 1.923428214879999842e+01
-9.914600056080000456e+01 1.923421764709999948e+01
-9.914609043619999795e+01 1.923421358039999873e+01
-9.914621097469999711e+01 1.923422540900000044e+01
-9.914633095540000340e+01 1.923420126299999922e+01
-9.914644487670000217e+01 1.923421057350000041e+01
-9.914658718569999962e+01 1.923424763899999945e+01
-9.914672093830000676e+01 1.923432117249999962e+01
-9.914688642000000129e+01 1.923437556309999863e+01
-9.914741495289999307e+01 1.923442084319999879e+01
-9.914757847139999569e+01 1.923446533619999954e+01
-9.914774232140000265e+01 1.923454206019999901e+01
-9.914787673659999712e+01 1.923455725079999823e+01
-9.914796562099999733e+01 1.923463778400000024e+01
-9.914810107760000335e+01 1.923472314520000026e+01
-9.914818180219999988e+01 1.923479383829999989e+01
-9.914834286880000036e+01 1.923489702910000076e+01
-9.914840248480000184e+01 1.923497765069999943e+01
-9.914841978280000490e+01 1.923513121190000064e+01
-9.914838809089999927e+01 1.923533792779999985e+01
-9.914834259440000608e+01 1.923543524999999832e+01
-9.914826445900000351e+01 1.923552783070000061e+01
-9.914816573960000312e+01 1.923563350270000072e+01
-9.914811516509999478e+01 1.923572533549999974e+01
-9.914805709060000538e+01 1.923589798009999896e+01
-9.914800994479999474e+01 1.923601305280000062e+01
-9.914795570930000679e+01 1.923606744279999958e+01
-9.914796301159999814e+01 1.923611692160000075e+01
-9.914797371759999578e+01 1.923614989249999851e+01
-9.914798859889999960e+01 1.923616785300000132e+01
-9.914801609200000598e+01 1.923619477909999986e+01
-9.914806342740000389e+01 1.923622540139999870e+01
-9.914809970960000385e+01 1.923624929720000054e+01
-9.914813770160000672e+01 1.923626419169999835e+01
-9.914823412719999851e+01 1.923630846220000024e+01
-9.914829799909999508e+01 1.923616843099999940e+01
-9.914837098319999598e+01 1.923600168229999952e+01
-9.914836990889999413e+01 1.923583330920000023e+01
-9.914838985560000140e+01 1.923577533959999997e+01
-9.914843697070000417e+01 1.923572021709999902e+01
-9.914852999379999687e+01 1.923567960300000124e+01
-9.914861395869999683e+01 1.923566941099999994e+01
-9.914870709039999497e+01 1.923566497750000082e+01
-9.914878939940000180e+01 1.923558233429999831e+01
-9.914883818459999532e+01 1.923552287089999879e+01
-9.914889186579999603e+01 1.923536388509999995e+01
-9.914894109300000480e+01 1.923519266419999951e+01
-9.914901053590000402e+01 1.923511743179999911e+01
-9.914909655479999628e+01 1.923503424060000100e+01
-9.914916672660000074e+01 1.923495762390000152e+01
-9.914920205149999788e+01 1.923488779639999890e+01
-9.914928257740000106e+01 1.923484419529999911e+01
-9.914941364599999929e+01 1.923480068880000005e+01
-9.914949426740000149e+01 1.923474485859999916e+01
-9.914954157649999900e+01 1.923468115349999863e+01
-9.914956943789999855e+01 1.923462543970000027e+01
-9.914957233169999995e+01 1.923455388089999829e+01
-9.914953633540000055e+01 1.923448771409999836e+01
-9.914943645900000035e+01 1.923441905010000141e+01
-9.914934493030000340e+01 1.923434506159999913e+01
-9.914930666600000109e+01 1.923426845839999899e+01
-9.914931089809999776e+01 1.923417570950000055e+01
-9.914938714049999646e+01 1.923408778570000166e+01
-9.914946506180000085e+01 1.923403188289999832e+01
-9.914954562340000166e+01 1.923403431450000056e+01
-9.914959551500000146e+01 1.923408192189999966e+01
-9.914966207060000158e+01 1.923413213230000096e+01
-9.914978146330000186e+01 1.923416098150000053e+01
-9.915002589280000223e+01 1.923418152309999840e+01
-9.915013427030000059e+01 1.923417060530000100e+01
-9.915025093779999565e+01 1.923417822809999933e+01
-9.915030924209999341e+01 1.923419397740000036e+01
-9.915038693220000710e+01 1.923423354859999890e+01
-9.915044234319999816e+01 1.923429440749999841e+01
-9.915046428899999853e+01 1.923441370569999975e+01
-9.915047791160000656e+01 1.923453830169999890e+01
-9.915048051370000337e+01 1.923462843540000122e+01
-9.915049214729999960e+01 1.923467111480000113e+01
-9.915059149580000053e+01 1.923469706550000069e+01
-9.915068317550000643e+01 1.923468886990000115e+01
-9.915074458509999999e+01 1.923454022270000152e+01
-9.915076441099999727e+01 1.923437571350000042e+01
-9.915073707649999335e+01 1.923420596089999890e+01
-9.915070414960000278e+01 1.923406535430000019e+01
-9.915065719320000426e+01 1.923397786430000167e+01
-9.915056072490000361e+01 1.923375498209999890e+01
-9.915052523410000163e+01 1.923367211340000082e+01
-9.915049108479999518e+01 1.923353086850000082e+01
-9.915047680349999837e+01 1.923341382519999954e+01
-9.915052026409999542e+01 1.923321105509999995e+01
-9.915057959649999475e+01 1.923316756710000064e+01
-9.915060161620000656e+01 1.923308316560000009e+01
-9.915058600560000457e+01 1.923291855129999917e+01
-9.915057525829999463e+01 1.923265472880000004e+01
-9.915060363130000098e+01 1.923256065900000067e+01
-9.915070153189999758e+01 1.923241267839999935e+01
-9.915081665750000184e+01 1.923231013610000062e+01
-9.915085187059999328e+01 1.923223477350000010e+01
-9.915086594529999786e+01 1.923208345129999941e+01
-9.915090136979999613e+01 1.923198397999999898e+01
-9.915093262359999926e+01 1.923194181479999898e+01
-9.915097605740000120e+01 1.923190826429999944e+01
-9.915109907609999595e+01 1.923177196640000020e+01
-9.915117039620000128e+01 1.923157938450000159e+01
-9.915123266749999686e+01 1.923149132420000029e+01
-9.915136596540000369e+01 1.923135385380000173e+01
-9.915152637810000158e+01 1.923119669160000100e+01
-9.915162492070000155e+01 1.923107652179999860e+01
-9.915174008200000344e+01 1.923080975830000128e+01
-9.915178089890000024e+01 1.923066491220000174e+01
-9.915179371220000348e+01 1.923048108260000078e+01
-9.915182125580000161e+01 1.923021131349999990e+01
-9.915186030370000481e+01 1.923006831680000062e+01
-9.915191446199999348e+01 1.922997391550000046e+01
-9.915202014060000124e+01 1.922980306479999868e+01
-9.915212846800000079e+01 1.922962283929999927e+01
-9.915223080180000181e+01 1.922947979059999923e+01
-9.915233316450000700e+01 1.922936819350000093e+01
-9.915237527120000038e+01 1.922927666049999829e+01
-9.915238938999999618e+01 1.922913468200000153e+01
-9.915241726450000215e+01 1.922897438780000101e+01
-9.915245630729999959e+01 1.922882853089999955e+01
-9.915251334079999879e+01 1.922858258489999983e+01
-9.915256181200000185e+01 1.922842679780000097e+01
-9.915264896029999875e+01 1.922815795240000014e+01
-9.915270002489999968e+01 1.922794511160000042e+01
-9.915276906379999389e+01 1.922764768809999936e+01
-9.915283208850000563e+01 1.922736456539999850e+01
-9.915286502850000261e+01 1.922713865400000088e+01
-9.915293530590000159e+01 1.922690222259999970e+01
-9.915298426270000220e+01 1.922664991059999906e+01
-9.915307199500000479e+01 1.922651083379999903e+01
-9.915318070780000426e+01 1.922631941950000112e+01
-9.915326161190000676e+01 1.922615975060000082e+01
-9.915337849450000363e+01 1.922598182260000144e+01
-9.915331697320000615e+01 1.922586253449999916e+01
-9.915321209859999385e+01 1.922560293969999989e+01
-9.915312337420000688e+01 1.922534243549999999e+01
-9.915303914230000260e+01 1.922520650939999953e+01
-9.915297359560000245e+01 1.922509923639999840e+01
-9.915290012650000051e+01 1.922500326720000174e+01
-9.915284056449999639e+01 1.922493364969999874e+01
-9.915278497670000490e+01 1.922487344130000153e+01
-9.915273734669999328e+01 1.922483770559999883e+01
-9.915269105420000528e+01 1.922481596249999924e+01
-9.915263747599999533e+01 1.922478399759999945e+01
-9.915254025710000008e+01 1.922474077089999867e+01
-9.915245637549999458e+01 1.922471017950000061e+01
-9.915236632110000414e+01 1.922468461300000087e+01
-9.915227642189999813e+01 1.922467320510000022e+01
-9.915221161579999887e+01 1.922467156129999921e+01
-9.915212037729999395e+01 1.922466222179999917e+01
-9.915196473589999471e+01 1.922464809779999939e+01
-9.915186245469999449e+01 1.922462932339999853e+01
-9.915174561099999551e+01 1.922462066570000161e+01
-9.915160218239999779e+01 1.922460969069999948e+01
-9.915155191739999907e+01 1.922460684609999859e+01
-9.915149555169999473e+01 1.922459677710000037e+01
-9.915145136889999833e+01 1.922458380610000006e+01
-9.915140870230000303e+01 1.922456505010000072e+01
-9.915137060739999697e+01 1.922454773660000171e+01
-9.915132031320000294e+01 1.922451742129999985e+01
-9.915127368390000129e+01 1.922448493659999968e+01
-9.915123285810000198e+01 1.922445008440000080e+01
-9.915119048420000070e+01 1.922440552449999984e+01
-9.915116416760000106e+01 1.922437195899999907e+01
-9.915114350769999874e+01 1.922434117010000065e+01
-9.915112829529999772e+01 1.922431509089999935e+01
-9.915111522040000125e+01 1.922428950779999823e+01
-9.915110304350000092e+01 1.922426198830000033e+01
-9.915109221650000393e+01 1.922423308009999943e+01
-9.915108450290000519e+01 1.922420848590000020e+01
-9.915107861799999966e+01 1.922418606169999933e+01
-9.915107438539999407e+01 1.922415108019999863e+01
-9.915107321840000054e+01 1.922411362249999911e+01
-9.915107519820000448e+01 1.922407911239999834e+01
-9.915108076680000693e+01 1.922404136780000172e+01
-9.915109024900000634e+01 1.922400287350000170e+01
-9.915110106650000432e+01 1.922397130979999957e+01
-9.915111389259999441e+01 1.922394157140000104e+01
-9.915113343580000560e+01 1.922390043129999881e+01
-9.915115318869999328e+01 1.922385414840000095e+01
-9.915117142180000087e+01 1.922381075850000087e+01
-9.915118694160000246e+01 1.922377707829999949e+01
-9.915119663209999601e+01 1.922374622530000110e+01
-9.915120222859999899e+01 1.922371699560000025e+01
-9.915120445290000362e+01 1.922369071820000030e+01
-9.915120390789999760e+01 1.922366187080000088e+01
-9.915120073820000357e+01 1.922363594369999973e+01
-9.915118459079999980e+01 1.922356181780000028e+01
-9.915116470079999544e+01 1.922348660649999985e+01
-9.915115021100000092e+01 1.922340797109999855e+01
-9.915122076400000140e+01 1.922324451360000097e+01
-9.915131472539999891e+01 1.922320793149999929e+01
-9.915139586739999800e+01 1.922322248240000064e+01
-9.915140832400000193e+01 1.922323042180000030e+01
-9.915142609439999433e+01 1.922328175790000060e+01
-9.915144754390000514e+01 1.922335277219999838e+01
-9.915147834299999374e+01 1.922342250970000066e+01
-9.915151176230000374e+01 1.922344023690000014e+01
-9.915154382549999923e+01 1.922343893929999936e+01
-9.915157987630000491e+01 1.922341734260000123e+01
-9.915161989150000466e+01 1.922335261319999944e+01
-9.915165186170000311e+01 1.922326125489999882e+01
-9.915167182650000655e+01 1.922318639710000099e+01
-9.915169045300000050e+01 1.922311027099999947e+01
-9.915177486470000190e+01 1.922287365680000093e+01
-9.915184219440000390e+01 1.922273121030000098e+01
-9.915190934240000331e+01 1.922241247859999902e+01
-9.915202287750000210e+01 1.922203946209999970e+01
-9.915203661930000578e+01 1.922188215419999935e+01
-9.915200981969999816e+01 1.922174114459999927e+01
-9.915206379980000406e+01 1.922129586089999975e+01
-9.915229025140000374e+01 1.922087753839999991e+01
-9.915233795429999475e+01 1.922071476880000063e+01
-9.915248051989999567e+01 1.922053383200000098e+01
-9.915261705780000057e+01 1.922046814000000126e+01
-9.915276704720000112e+01 1.922046210779999953e+01
-9.915284157019999611e+01 1.922050328890000159e+01
-9.915293442210000308e+01 1.922058087239999935e+01
-9.915305773519999377e+01 1.922074122240000094e+01
-9.915321710710000502e+01 1.922098516189999984e+01
-9.915328450030000340e+01 1.922118398559999974e+01
-9.915342425000000048e+01 1.922140986229999982e+01
-9.915348152759999323e+01 1.922158157430000003e+01
-9.915351936519999754e+01 1.922180624330000143e+01
-9.915439486389999502e+01 1.922063927720000009e+01
-9.914954364679999799e+01 1.921922407090000107e+01
-9.913831586909999771e+01 1.921572824080000075e+01
-9.913301433830000065e+01 1.921009500699999961e+01
-9.913297345949999340e+01 1.921007673380000114e+01
-9.913287459750000608e+01 1.921002581649999996e+01
-9.913282147069999439e+01 1.920997932739999925e+01
-9.913287047180000400e+01 1.920992247059999869e+01
-9.913291867610000452e+01 1.920985661250000121e+01
-9.913291569829999617e+01 1.920975237249999878e+01
-9.913277299950000554e+01 1.920943905769999915e+01
-9.913276633009999728e+01 1.920925571369999929e+01
-9.913279665609999824e+01 1.920898402479999945e+01
-9.913277016130000163e+01 1.920833480969999840e+01
-9.913270424659999946e+01 1.920823940700000065e+01
-9.913252514340000232e+01 1.920812488190000167e+01
-9.913241977149999684e+01 1.920800020629999949e+01
-9.913232024430000422e+01 1.920770009359999975e+01
-9.913232300789999840e+01 1.920762747019999850e+01
-9.913249775490000104e+01 1.920715516019999924e+01
-9.913252240369999413e+01 1.920700916710000072e+01
-9.913249956900000370e+01 1.920672347229999843e+01
-9.913243119599999886e+01 1.920647905579999914e+01
-9.913227167430000009e+01 1.920623871840000163e+01
-9.913198002919999396e+01 1.920591453209999955e+01
-9.913164288049999584e+01 1.920560939090000119e+01
-9.913156594740000571e+01 1.920552922779999960e+01
-9.913148513379999827e+01 1.920542820369999859e+01
-9.913136601540000470e+01 1.920522207490000000e+01
-9.913121369850000519e+01 1.920480010669999871e+01
-9.913120689459999824e+01 1.920456548039999944e+01
-9.913092416839999999e+01 1.920420459800000046e+01
-9.913083269439999867e+01 1.920412387560000056e+01
-9.913076566360000186e+01 1.920407773590000033e+01
-9.913055299869999715e+01 1.920400707670000173e+01
-9.913050754190000191e+01 1.920399283260000090e+01
-9.913043844480000644e+01 1.920397032150000172e+01
-9.913011430710000127e+01 1.920388257890000006e+01
-9.913008333599999844e+01 1.920384631630000172e+01
-9.913007965900000329e+01 1.920380018499999863e+01
-9.913008872310000186e+01 1.920375300959999976e+01
-9.913019943060000116e+01 1.920351693770000168e+01
-9.913022848560000000e+01 1.920343225270000076e+01
-9.913030241090000061e+01 1.920317555780000163e+01
-9.912991746689999673e+01 1.920304554490000015e+01
-9.912974728209999853e+01 1.920301665950000114e+01
-9.912931315000000154e+01 1.920300311640000146e+01
-9.912939217039999562e+01 1.920251585829999996e+01
-9.912939621520000344e+01 1.920246496189999874e+01
-9.912942976060000433e+01 1.920206905959999943e+01
-9.912946525830000155e+01 1.920181619439999920e+01
-9.912948065199999803e+01 1.920166159949999951e+01
-9.912953903759999719e+01 1.920107209200000042e+01
-9.912954026110000427e+01 1.920068209489999944e+01
-9.912954002579999724e+01 1.920038210790000122e+01
-9.912946939809999947e+01 1.920032277050000147e+01
-9.912940355099999579e+01 1.920022535889999915e+01
-9.912936018679999961e+01 1.920015838819999843e+01
-9.912934249410000120e+01 1.920009901190000079e+01
-9.912933458439999868e+01 1.920003781770000018e+01
-9.912934006339999371e+01 1.919988205800000003e+01
-9.912932067670000436e+01 1.919983623879999968e+01
-9.912928745400000707e+01 1.919980479020000175e+01
-9.912915271939999684e+01 1.919974365350000056e+01
-9.912911734109999884e+01 1.919971531199999859e+01
-9.912908949869999731e+01 1.919967146089999943e+01
-9.912908463130000314e+01 1.919958491190000061e+01
-9.912909288080000181e+01 1.919944118700000146e+01
-9.912911276590000398e+01 1.919932347490000168e+01
-9.912913996230000180e+01 1.919919099450000033e+01
-9.912919962600000190e+01 1.919904602160000096e+01
-9.912927714879999996e+01 1.919890096270000157e+01
-9.912937793589999558e+01 1.919874213359999970e+01
-9.912944877270000177e+01 1.919859966619999980e+01
-9.912947811739999793e+01 1.919852052539999931e+01
-9.912949839300000576e+01 1.919845585859999915e+01
-9.912950982910000164e+01 1.919840765960000084e+01
-9.912951538759999437e+01 1.919836931780000100e+01
-9.912951248849999786e+01 1.919832551809999899e+01
-9.912949963089999983e+01 1.919829246919999832e+01
-9.912948033060000341e+01 1.919826233279999883e+01
-9.912945706889999542e+01 1.919823655560000120e+01
-9.912937507969999729e+01 1.919819074890000010e+01
-9.912929292610000687e+01 1.919816423760000035e+01
-9.912926961860000574e+01 1.919812687699999998e+01
-9.912927374630000088e+01 1.919803679110000161e+01
-9.912927420089999941e+01 1.919800449279999910e+01
-9.912930894209999622e+01 1.919793755910000144e+01
-9.912943781639999941e+01 1.919777081650000028e+01
-9.912954108399999598e+01 1.919765528370000141e+01
-9.912950772770000185e+01 1.919751339329999951e+01
-9.912948145199999317e+01 1.919745420920000001e+01
-9.912947297889999732e+01 1.919737789419999885e+01
-9.912950592139999628e+01 1.919727100029999889e+01
-9.912961306169999887e+01 1.919712062969999877e+01
-9.913002063359999738e+01 1.919674511719999899e+01
-9.913022321020000049e+01 1.919661141019999917e+01
-9.913039376720000462e+01 1.919638175989999951e+01
-9.913045065599999361e+01 1.919620547470000105e+01
-9.913042616980000332e+01 1.919609613729999964e+01
-9.913022044209999706e+01 1.919584363759999945e+01
-9.913012422869999796e+01 1.919558667169999921e+01
-9.913004733219999309e+01 1.919545909769999881e+01
-9.912994356810000340e+01 1.919535707849999895e+01
-9.913002158810000708e+01 1.919491075790000068e+01
-9.913012338480000096e+01 1.919468023490000164e+01
-9.913009280149999825e+01 1.919456721950000144e+01
-9.913007826609999995e+01 1.919451374349999995e+01
-9.913010380640000108e+01 1.919446803689999825e+01
-9.913023619969999345e+01 1.919436616879999846e+01
-9.913027939190000382e+01 1.919433412780000126e+01
-9.913049116150000373e+01 1.919401253390000051e+01
-9.913046827269999994e+01 1.919376019170000092e+01
-9.913047199940000098e+01 1.919366265540000072e+01
-9.913057769290000465e+01 1.919338520899999878e+01
-9.913061614599999416e+01 1.919316485319999899e+01
-9.913077500129999464e+01 1.919294030800000073e+01
-9.913064154849999454e+01 1.919269558859999947e+01
-9.913065427460000478e+01 1.919245076549999851e+01
-9.913059827509999877e+01 1.919229171479999962e+01
-9.913065830120000044e+01 1.919206723980000007e+01
-9.913065796899999782e+01 1.919164673790000109e+01
-9.913067272460000368e+01 1.919131491190000105e+01
-9.913047718069999803e+01 1.919108309519999978e+01
-9.913014940220000426e+01 1.919090216809999916e+01
-9.913000299949999317e+01 1.919073342720000142e+01
-9.912999595120000151e+01 1.919049030149999879e+01
-9.912993513840000048e+01 1.919029751100000070e+01
-9.912934762749999607e+01 1.918981117070000053e+01
-9.912872843040000248e+01 1.918914524039999847e+01
-9.912816195999999991e+01 1.918881084679999915e+01
-9.912773508930000332e+01 1.918847449840000152e+01
-9.912756965590000391e+01 1.918829127340000085e+01
-9.912741240050000613e+01 1.918810843669999855e+01
-9.912726796290000664e+01 1.918786253349999882e+01
-9.912712125090000370e+01 1.918756439770000100e+01
-9.912707612660000223e+01 1.918726619179999915e+01
-9.912725152839999510e+01 1.918699983719999835e+01
-9.912738581419999662e+01 1.918671426690000104e+01
-9.912748590280000371e+01 1.918640734699999939e+01
-9.912786002439999322e+01 1.918604532239999827e+01
-9.912837366530000338e+01 1.918560937870000060e+01
-9.912873837840000135e+01 1.918502993790000133e+01
-9.912886267849999911e+01 1.918478950820000151e+01
-9.912897045920000494e+01 1.918465153040000004e+01
-9.912911565929999824e+01 1.918460808809999918e+01
-9.912942953559999637e+01 1.918454713619999907e+01
-9.912951513410000359e+01 1.918446762800000016e+01
-9.912959385850000160e+01 1.918431785010000112e+01
-9.912968092500000239e+01 1.918422322809999869e+01
-9.912977217009999720e+01 1.918416406300000077e+01
-9.912986759839999706e+01 1.918415217380000115e+01
-9.912997130889999653e+01 1.918411664039999920e+01
-9.913010123210000302e+01 1.918393375839999848e+01
-9.913019577740000443e+01 1.918370294569999857e+01
-9.913024209460000691e+01 1.918335637650000081e+01
-9.913025730539999358e+01 1.918295084520000060e+01
-9.913033464420000485e+01 1.918255264389999937e+01
-9.913049751910000396e+01 1.918230921460000005e+01
-9.913080019219999883e+01 1.918210255219999993e+01
-9.913104843969999536e+01 1.918180745060000092e+01
-9.913128683159999355e+01 1.918125329869999973e+01
-9.913147587900000701e+01 1.918062963199999871e+01
-9.913162322649999680e+01 1.918039358749999934e+01
-9.913186366950000661e+01 1.918005425269999975e+01
-9.913197979779999969e+01 1.917961915620000113e+01
-9.913207270120000203e+01 1.917927255229999872e+01
-9.913215790259999949e+01 1.917900705910000170e+01
-9.913224311560000501e+01 1.917875631189999908e+01
-9.913239455679999423e+01 1.917853221900000094e+01
-9.913240180789999556e+01 1.917821205339999935e+01
-9.913232622179999964e+01 1.917796156220000015e+01
-9.913229585930000098e+01 1.917770387850000091e+01
-9.913229567019999422e+01 1.917746764969999873e+01
-9.913232562669999481e+01 1.917721708239999856e+01
-9.913243851350000568e+01 1.917697361329999950e+01
-9.913250485849999905e+01 1.917677229590000110e+01
-9.913250219340000058e+01 1.917666933419999964e+01
-9.913241430850000313e+01 1.917653701480000095e+01
-9.913231092329999683e+01 1.917639490050000006e+01
-9.913224943909999354e+01 1.917621495370000062e+01
-9.913216118619999406e+01 1.917583695469999938e+01
-9.913213271710000640e+01 1.917550144630000020e+01
-9.913206373449999376e+01 1.917512008410000135e+01
-9.913195018300000072e+01 1.917486453989999973e+01
-9.913175157380000257e+01 1.917454851429999962e+01
-9.913156717910000282e+01 1.917429302240000055e+01
-9.913138278799999625e+01 1.917403752759999946e+01
-9.913110634890000483e+01 1.917384264189999854e+01
-9.913091193120000355e+01 1.917360332879999874e+01
-9.913079499100000191e+01 1.917342040260000147e+01
-9.913046888290000425e+01 1.917297101910000023e+01
-9.913019672679999417e+01 1.917267071550000068e+01
-9.913007300670000177e+01 1.917251500880000137e+01
-9.913003387130000021e+01 1.917244638129999856e+01
-9.912994940069999927e+01 1.917236027890000116e+01
-9.912995055669999545e+01 1.917224601019999852e+01
-9.912996277940000311e+01 1.917219584369999907e+01
-9.912999715930000377e+01 1.917213749960000158e+01
-9.913007147529999941e+01 1.917208355040000001e+01
-9.913024435389999667e+01 1.917200809190000044e+01
-9.913034192870000538e+01 1.917195942329999880e+01
-9.913040969109999878e+01 1.917190981010000073e+01
-9.913046184339999911e+01 1.917185528439999942e+01
-9.913047740620000070e+01 1.917180073780000171e+01
-9.913050888889999612e+01 1.917164395040000002e+01
-9.913054318279999677e+01 1.917139363880000147e+01
-9.913053300869999873e+01 1.917104751260000128e+01
-9.913051966320000474e+01 1.917083772659999852e+01
-9.913047793379999462e+01 1.917072152740000135e+01
-9.913051453660000334e+01 1.917057276070000071e+01
-9.913052082890000349e+01 1.917040212959999934e+01
-9.913031347400000470e+01 1.916885906670000139e+01
-9.913017421039999988e+01 1.916822047180000155e+01
-9.913020227689999331e+01 1.916726402640000160e+01
-9.913021752710000101e+01 1.916657942450000007e+01
-9.913031476780000162e+01 1.916590606209999947e+01
-9.913047101719999432e+01 1.916540888769999995e+01
-9.913064142689999869e+01 1.916490040709999931e+01
-9.913106844450000210e+01 1.916405549730000146e+01
-9.913165033759999289e+01 1.916318554860000134e+01
-9.913181465350000110e+01 1.916260893669999987e+01
-9.913197635410000430e+01 1.916212662290000068e+01
-9.913224864020000382e+01 1.916160907289999926e+01
-9.913239866230000530e+01 1.916128376099999997e+01
-9.913252328609999608e+01 1.916084802840000023e+01
-9.913269489629999498e+01 1.916013443439999975e+01
-9.913272498530000121e+01 1.915933866430000165e+01
-9.913282471429999987e+01 1.915858367470000090e+01
-9.913289482439999745e+01 1.915772752710000049e+01
-9.913279528859999346e+01 1.915662368590000142e+01
-9.913283661159999838e+01 1.915582500900000085e+01
-9.913279535259999875e+01 1.915488078279999939e+01
-9.913255504970000231e+01 1.915429835629999999e+01
-9.913246784730000627e+01 1.915398963850000058e+01
-9.913261153860000263e+01 1.915338162340000139e+01
-9.913260026339999342e+01 1.915321966739999837e+01
-9.913258163000000422e+01 1.915312114399999999e+01
-9.913250884309999833e+01 1.915302635189999947e+01
-9.913214156899999807e+01 1.915292139660000004e+01
-9.913165816049999535e+01 1.915263450189999972e+01
-9.913140332659999387e+01 1.915265347100000071e+01
-9.913105073260000211e+01 1.915266867849999954e+01
-9.913024431549999349e+01 1.915254416810000038e+01
-9.913123153540000487e+01 1.915075037869999974e+01
-9.913240605149999851e+01 1.914861128560000125e+01
-9.913721135980000554e+01 1.915075038830000054e+01
-9.913777332889999627e+01 1.915099561590000121e+01
-9.913853225639999778e+01 1.915133836020000047e+01
-9.913894864739999946e+01 1.915144344839999846e+01
-9.913942615290000049e+01 1.915164721900000089e+01
-9.913977425230000051e+01 1.915180737049999848e+01
-9.914002020830000106e+01 1.915195856189999901e+01
-9.914040432609999698e+01 1.915221326800000057e+01
-9.914069557550000411e+01 1.915249668699999930e+01
-9.914084909480000363e+01 1.915291839620000047e+01
-9.914113295079999943e+01 1.915351455569999928e+01
-9.914152398090000418e+01 1.915405972139999946e+01
-9.914182252950000418e+01 1.915448005929999908e+01
-9.914203408219999858e+01 1.915474332610000019e+01
-9.914228364000000226e+01 1.915513638570000055e+01
-9.914251922799999761e+01 1.915555759940000158e+01
-9.914274956059999511e+01 1.915608035989999891e+01
-9.914293831669999690e+01 1.915651397350000096e+01
-9.914305619600000341e+01 1.915681850600000047e+01
-9.914323824320000256e+01 1.915714329620000100e+01
-9.914344581730000527e+01 1.915753884209999924e+01
-9.914367707510000116e+01 1.915783463989999902e+01
-9.914396081779999292e+01 1.915811684040000173e+01
-9.914423001149999948e+01 1.915839905130000176e+01
-9.914449415160000001e+01 1.915866545049999914e+01
-9.914480454869999448e+01 1.915886403100000024e+01
-9.914492217919999462e+01 1.915892833899999914e+01
-9.914545782800000495e+01 1.915921371840000020e+01
-9.914607686329999581e+01 1.915955213359999831e+01
-9.914650980979999417e+01 1.915981161670000077e+01
-9.914680389080000111e+01 1.915994468590000110e+01
-9.914720816470000386e+01 1.916004151539999967e+01
-9.914757858350000674e+01 1.916014063080000085e+01
-9.914820007129999624e+01 1.916023502450000038e+01
-9.914870415160000050e+01 1.916027302599999871e+01
-9.914960840860000246e+01 1.916031287450000065e+01
-9.914972375240000702e+01 1.915984408790000160e+01
-9.915180576340000584e+01 1.915141075469999876e+01
-9.915195691419999946e+01 1.915076742429999967e+01
-9.915249958399999741e+01 1.914211807039999869e+01
-9.915400427459999833e+01 1.913812156259999853e+01
-9.915500932380000165e+01 1.913530970440000090e+01
-9.916329284360000429e+01 1.911749056929999924e+01
-9.915474754059999896e+01 1.910883656009999854e+01
-9.914681086769999752e+01 1.910058309300000090e+01
-9.913648147620000373e+01 1.908937799170000105e+01
-9.917823067979999507e+01 1.909247426419999982e+01
-9.922108433830000251e+01 1.909564029739999924e+01
-9.922677778039999907e+01 1.909606000349999988e+01
-9.925662965230000623e+01 1.911655781660000031e+01
-9.927869521819999932e+01 1.913170172710000116e+01
-9.928258882740000502e+01 1.913821283480000091e+01
-9.928760524560000533e+01 1.914660057400000071e+01
-9.929311506579999502e+01 1.916529907290000168e+01
-9.929559685259999924e+01 1.917288280469999862e+01
-9.930018312289999471e+01 1.918457850049999891e+01
-9.930133143790000361e+01 1.918841740839999943e+01
-9.930276264360000482e+01 1.919085509079999952e+01
-9.930324331789999803e+01 1.919365580750000078e+01
-9.930391557020000448e+01 1.919717917670000062e+01
-9.930396509999999921e+01 1.919826354839999993e+01
-9.930444483360000163e+01 1.920052203499999877e+01
-9.930468651309999473e+01 1.920264535560000141e+01
-9.930613062400000501e+01 1.920614374390000023e+01
-9.930678473390000249e+01 1.921108083180000037e+01
-9.930713553500000046e+01 1.921372846410000079e+01
-9.930813314559999583e+01 1.921436891280000125e+01
-9.930829970050000099e+01 1.921451240160000040e+01
-9.931230028400000265e+01 1.921803107870000105e+01
-9.931336574130000372e+01 1.921896737659999843e+01
-9.931624975639999775e+01 1.922150168170000128e+01
-9.931612170360000391e+01 1.922258882850000106e+01
-9.931555553120000468e+01 1.922739534749999990e+01
-9.931505655220000506e+01 1.922689780820000038e+01
-9.931466530429999295e+01 1.922670449079999955e+01
-9.931445229630000426e+01 1.922662092790000088e+01
-9.931401111530000492e+01 1.922647630259999829e+01
-9.931355332379999368e+01 1.922620813349999835e+01
-9.931325092820000577e+01 1.922597689579999880e+01
-9.931297366580000130e+01 1.922580453360000163e+01
-9.931265551399999936e+01 1.922595760360000128e+01
-9.931227603879999322e+01 1.922602010740000011e+01
-9.931199096539999971e+01 1.922594160699999932e+01
-9.931171747759999846e+01 1.922587121220000128e+01
-9.931143953880000197e+01 1.922573680089999826e+01
-9.931128282170000432e+01 1.922563332569999872e+01
-9.931116331440000522e+01 1.922551899389999974e+01
-9.931102604340000539e+01 1.922539754650000177e+01
-9.931083356979999621e+01 1.922516971330000146e+01
-9.931049660029999870e+01 1.922521335580000112e+01
-9.930999124170000414e+01 1.922479804259999980e+01
-9.930962469589999841e+01 1.922474881770000010e+01
-9.930943016809999335e+01 1.922455364030000169e+01
-9.930918992680000201e+01 1.922429309420000010e+01
-9.930894654269999933e+01 1.922392953579999997e+01
-9.930862544839999373e+01 1.922360964459999977e+01
-9.930840163700000289e+01 1.922349853820000121e+01
-9.930805543319999629e+01 1.922343237939999838e+01
-9.930779072320000012e+01 1.922319528319999904e+01
-9.930709962439999572e+01 1.922276279100000096e+01
-9.930649160989999302e+01 1.922240968010000017e+01
-9.930604790779999291e+01 1.922236412150000007e+01
-9.930570443080000587e+01 1.922223618749999829e+01
-9.930543066840000677e+01 1.922201324250000098e+01
-9.930471168809999938e+01 1.922133298920000044e+01
-9.930397266100000309e+01 1.922057600340000150e+01
-9.930369466960000580e+01 1.922033318969999982e+01
-9.930343636700000332e+01 1.922009106870000039e+01
-9.930323898480000366e+01 1.921982136689999976e+01
-9.930309336669999709e+01 1.921958843170000009e+01
-9.930273086649999925e+01 1.921925830509999855e+01
-9.930245612599999561e+01 1.921896874160000124e+01
-9.930200109419999421e+01 1.921862742309999916e+01
-9.930150264850000497e+01 1.921828945929999932e+01
-9.930142787530000703e+01 1.921822079169999853e+01
-9.930097455749999824e+01 1.921819859909999906e+01
-9.930054378309999663e+01 1.921796912159999948e+01
-9.930026691470000344e+01 1.921774239630000025e+01
-9.929980857190000165e+01 1.921774122609999935e+01
-9.929922481309999682e+01 1.921770957869999918e+01
-9.929861993250000296e+01 1.921792969059999834e+01
-9.929814436370000408e+01 1.921808141900000066e+01
-9.929779922609999687e+01 1.921812185319999955e+01
-9.929735845439999764e+01 1.921791836139999887e+01
-9.929702304260000290e+01 1.921783233640000077e+01
-9.929670581370000093e+01 1.921776334839999834e+01
-9.929642587349999872e+01 1.921752782769999968e+01
-9.929612843319999627e+01 1.921711060259999826e+01
-9.929583427820000452e+01 1.921676255790000099e+01
-9.929548778759999550e+01 1.921629761670000036e+01
-9.929527094009999644e+01 1.921595755230000080e+01
-9.929505578920000630e+01 1.921548090250000129e+01
-9.929494498719999740e+01 1.921533708770000004e+01
-9.929483638909999854e+01 1.921524572759999927e+01
-9.929468416369999773e+01 1.921518055379999979e+01
-9.929443897740000580e+01 1.921512229749999889e+01
-9.929430811839999649e+01 1.921502556440000120e+01
-9.929420168939999769e+01 1.921488807580000113e+01
-9.929412186960000497e+01 1.921478544389999854e+01
-9.929394600550000405e+01 1.921464418829999943e+01
-9.929382334909999486e+01 1.921456682970000074e+01
-9.929378446949999670e+01 1.921452035889999976e+01
-9.929372106959999655e+01 1.921439591789999923e+01
-9.929364859880000438e+01 1.921432110490000156e+01
-9.929356300329999385e+01 1.921426192239999864e+01
-9.929340167639999493e+01 1.921414354290000048e+01
-9.929315136149999432e+01 1.921390666739999986e+01
-9.929275429739999481e+01 1.921377373849999870e+01
-9.929239358079999533e+01 1.921382581370000153e+01
-9.929176789919999635e+01 1.921428293649999830e+01
-9.929143793949999974e+01 1.921459827340000004e+01
-9.929106156890000534e+01 1.921445361600000012e+01
-9.929062719850000462e+01 1.921426072879999936e+01
-9.929025768740000046e+01 1.921407608910000064e+01
-9.928989019620000533e+01 1.921391498139999854e+01
-9.928942953899999679e+01 1.921373095190000058e+01
-9.928916489889999752e+01 1.921380976580000066e+01
-9.928905672519999825e+01 1.921381804580000008e+01
-9.928894062070000359e+01 1.921377631020000010e+01
-9.928873482800000261e+01 1.921371656070000000e+01
-9.928857641429999603e+01 1.921360667629999952e+01
-9.928819616010000004e+01 1.921330690980000000e+01
-9.928804826059999300e+01 1.921317698309999855e+01
-9.928782356780000384e+01 1.921312226870000117e+01
-9.928751359059999970e+01 1.921314958480000001e+01
-9.928710557349999988e+01 1.921316262630000082e+01
-9.928681720810000400e+01 1.921320227329999852e+01
-9.928652382820000355e+01 1.921327850500000167e+01
-9.928628233419999560e+01 1.921333529150000174e+01
-9.928602958969999293e+01 1.921331037390000063e+01
-9.928557255009999949e+01 1.921326504419999992e+01
-9.928539377459999571e+01 1.921328602710000055e+01
-9.928526079899999957e+01 1.921331108129999876e+01
-9.928515188699999783e+01 1.921337957700000132e+01
-9.928505170249999878e+01 1.921345220119999908e+01
-9.928496453379999309e+01 1.921348546600000162e+01
-9.928482604600000627e+01 1.921356257049999883e+01
-9.928472460589999571e+01 1.921363602170000107e+01
-9.928463709970000650e+01 1.921368969850000141e+01
-9.928457694700000502e+01 1.921368080450000093e+01
-9.928441330139999366e+01 1.921363620170000175e+01
-9.928410586590000264e+01 1.921365150029999924e+01
-9.928393919709999693e+01 1.921360447360000023e+01
-9.928370905810000124e+01 1.921353951020000039e+01
-9.928353642070000262e+01 1.921342370869999883e+01
-9.928340095970000334e+01 1.921321044509999965e+01
-9.928329736950000495e+01 1.921316133499999879e+01
-9.928310023740000645e+01 1.921305562739999928e+01
-9.928239357750000238e+01 1.921308146049999976e+01
-9.928214028579999706e+01 1.921322589540000081e+01
-9.928188982620000047e+01 1.921339574110000115e+01
-9.928158556990000250e+01 1.921353235060000131e+01
-9.928134009260000425e+01 1.921364682509999966e+01
-9.928114257519999342e+01 1.921369783820000166e+01
-9.928104609010000559e+01 1.921372469740000000e+01
-9.928097283920000393e+01 1.921370910939999987e+01
-9.928089484829999378e+01 1.921368455860000068e+01
-9.928076011740000695e+01 1.921363093760000140e+01
-9.928059481340000048e+01 1.921365586110000123e+01
-9.928032079930000009e+01 1.921364955199999969e+01
-9.928015557899999521e+01 1.921372381790000006e+01
-9.927986599410000679e+01 1.921383984170000048e+01
-9.927957608789999711e+01 1.921392092589999834e+01
-9.927937215000000037e+01 1.921398876490000163e+01
-9.927881490769999573e+01 1.921407552109999983e+01
-9.927860360089999858e+01 1.921418648239999882e+01
-9.927820971580000275e+01 1.921427864360000015e+01
-9.927805253340000036e+01 1.921442299759999983e+01
-9.927801598429999785e+01 1.921445035400000023e+01
-9.927798204920000558e+01 1.921447770680000033e+01
-9.927794025190000582e+01 1.921449266129999955e+01
-9.927774868359999516e+01 1.921451427970000125e+01
-9.927766309400000466e+01 1.921455110209999972e+01
-9.927760169649999966e+01 1.921459027510000084e+01
-9.927756285339999920e+01 1.921465033269999978e+01
-9.927753486070000122e+01 1.921467871759999824e+01
-9.927750666420000414e+01 1.921468442660000164e+01
-9.927745437629999969e+01 1.921467954090000063e+01
-9.927734058430000630e+01 1.921471600579999972e+01
-9.927718879859999390e+01 1.921483839280000083e+01
-9.927677727559999710e+01 1.921530356390000094e+01
-9.927671599539999647e+01 1.921540591660000175e+01
-9.927666773880000051e+01 1.921548639919999957e+01
-9.927661544709999930e+01 1.921556688869999974e+01
-9.927655506790000572e+01 1.921563398820000046e+01
-9.927647042649999776e+01 1.921566091880000116e+01
-9.927641202850000468e+01 1.921570695540000173e+01
-9.927635894239999459e+01 1.921579492269999889e+01
-9.927633919160000175e+01 1.921600142320000160e+01
-9.927627890370000330e+01 1.921635461090000163e+01
-9.927624172909999345e+01 1.921642307850000009e+01
-9.927603509060000420e+01 1.921648953649999925e+01
-9.927587765789999708e+01 1.921657963499999866e+01
-9.927565652250000028e+01 1.921675918860000110e+01
-9.927530433069999560e+01 1.921705544079999939e+01
-9.927461600659999874e+01 1.921751827550000158e+01
-9.927445194679999929e+01 1.921788720580000032e+01
-9.927436474229999419e+01 1.921808552199999909e+01
-9.927420672499999910e+01 1.921815240069999930e+01
-9.927415462189999573e+01 1.921830951380000130e+01
-9.927413696290000189e+01 1.921845795109999955e+01
-9.927413028719999488e+01 1.921863381429999862e+01
-9.927405958449999446e+01 1.921885047219999976e+01
-9.927398349400000654e+01 1.921952789050000021e+01
-9.927401596900000413e+01 1.921970666949999895e+01
-9.927403906509999842e+01 1.922010111870000060e+01
-9.927410290599999598e+01 1.922040064790000002e+01
-9.927417331200000206e+01 1.922070162840000052e+01
-9.927415659700000106e+01 1.922103889650000141e+01
-9.927395160199999680e+01 1.922122951200000074e+01
-9.927378412320000223e+01 1.922137319770000019e+01
-9.927355169729999318e+01 1.922157311699999838e+01
-9.927298928170000636e+01 1.922181172890000056e+01
-9.927255418880000093e+01 1.922213850019999981e+01
-9.927225359499999513e+01 1.922266042189999879e+01
-9.927195879149999769e+01 1.922293734349999994e+01
-9.927174779850000164e+01 1.922314704249999906e+01
-9.927147088799999608e+01 1.922336452260000073e+01
-9.927131385309999700e+01 1.922343340240000131e+01
-9.927111373420000007e+01 1.922354871550000155e+01
-9.927092361510000273e+01 1.922370333550000154e+01
-9.927077173349999839e+01 1.922395652339999828e+01
-9.927067823459999829e+01 1.922420301369999862e+01
-9.927053292460000478e+01 1.922429192350000093e+01
-9.926979523260000349e+01 1.922440211589999848e+01
-9.926948691849999307e+01 1.922448870459999881e+01
-9.926914858930000207e+01 1.922471315370000156e+01
-9.926859280419999720e+01 1.922511019219999895e+01
-9.926823775709999609e+01 1.922558882179999884e+01
-9.926770963209999366e+01 1.922594253589999980e+01
-9.926685929820000354e+01 1.922653002259999866e+01
-9.926650392359999842e+01 1.922679410989999838e+01
-9.926623152739999512e+01 1.922691630550000141e+01
-9.926601580790000412e+01 1.922695231750000033e+01
-9.926577088010000693e+01 1.922699425140000073e+01
-9.926556866229999798e+01 1.922709702559999911e+01
-9.926525837430000365e+01 1.922711669050000083e+01
-9.926513710800000467e+01 1.922721934599999827e+01
-9.926508347840000113e+01 1.922743079070000149e+01
-9.926403346829999919e+01 1.922822544659999977e+01
-9.926377251959999626e+01 1.922849383779999854e+01
-9.926333141019999573e+01 1.922863746499999849e+01
-9.926272179839999410e+01 1.922898111760000006e+01
-9.926244935210000619e+01 1.922912610619999896e+01
-9.926202487589999635e+01 1.922918635310000113e+01
-9.926161789379999334e+01 1.922926915920000113e+01
-9.926127457869999660e+01 1.922933507979999845e+01
-9.926093102730000339e+01 1.922941302370000116e+01
-9.926030227850000642e+01 1.922970775920000008e+01
-9.925997258319999617e+01 1.922986060030000033e+01
-9.925889682010000570e+01 1.923051162370000000e+01
-9.925861956759999316e+01 1.923076715150000027e+01
-9.925839044410000156e+01 1.923098048419999984e+01
-9.925809006939999790e+01 1.923128105809999866e+01
-9.925790686419999531e+01 1.923155231999999870e+01
-9.925763856739999369e+01 1.923179383340000115e+01
-9.925745196159999750e+01 1.923205977139999945e+01
-9.925727103469999690e+01 1.923247062220000103e+01
-9.925695262119999995e+01 1.923254488210000090e+01
-9.925635707809999531e+01 1.923253406030000079e+01
-9.925609705140000472e+01 1.923253993439999832e+01
-9.925596961019999753e+01 1.923277608249999915e+01
-9.925564908430000344e+01 1.923322168780000041e+01
-9.925513649769999347e+01 1.923370530869999939e+01
-9.925474608890000638e+01 1.923393055949999919e+01
-9.925437780730000270e+01 1.923406744949999947e+01
-9.925398437350000336e+01 1.923444206330000128e+01
-9.925343252880000477e+01 1.923481160929999945e+01
-9.925312935979999907e+01 1.923510026969999842e+01
-9.925290911480000489e+01 1.923546742779999974e+01
-9.925282674029999441e+01 1.923574705009999875e+01
-9.925267564930000219e+01 1.923609427230000080e+01
-9.925266193679999560e+01 1.923664558689999993e+01
-9.925280280990000392e+01 1.923719275059999845e+01
-9.925286883900000134e+01 1.923759015790000149e+01
-9.925271218400000350e+01 1.923782224720000045e+01
-9.925240957280000487e+01 1.923816327729999998e+01
-9.925218863009999382e+01 1.923839768519999893e+01
-9.925201827070000604e+01 1.923863202420000107e+01
-9.925187968989999376e+01 1.923897436660000082e+01
-9.925178516210000623e+01 1.923949792339999831e+01
-9.925147235469999885e+01 1.924007214350000083e+01
-9.925099359530000243e+01 1.924045591430000002e+01
-9.925104192290000071e+01 1.924091387069999826e+01
-9.925118274269999574e+01 1.924126733510000165e+01
-9.925138692369999660e+01 1.924147021630000154e+01
-9.925159892809999462e+01 1.924167204549999965e+01
-9.925180127320000167e+01 1.924202507040000043e+01
-9.925176853440000002e+01 1.924243316340000121e+01
-9.925145088370000224e+01 1.924292629829999868e+01
-9.925131122080000523e+01 1.924315285990000035e+01
-9.925120783520000600e+01 1.924336460680000016e+01
-9.925100959780000665e+01 1.924377437920000133e+01
-9.925086028939999494e+01 1.924396825199999839e+01
-9.925059118469999930e+01 1.924428773560000039e+01
-9.925035784600000000e+01 1.924452014579999926e+01
-9.925022876219999546e+01 1.924455902789999939e+01
-9.925014643490000310e+01 1.924468854799999917e+01
-9.925013364599999477e+01 1.924479925789999868e+01
-9.925020162990000472e+01 1.924491358259999885e+01
-9.925047767399999543e+01 1.924520904859999959e+01
-9.925044600709999543e+01 1.924539852890000091e+01
-9.925035096339999541e+01 1.924569327620000081e+01
-9.925016861180000660e+01 1.924572493160000164e+01
-9.924993953320000628e+01 1.924570164300000030e+01
-9.924982596559999593e+01 1.924574162740000105e+01
-9.924964995160000569e+01 1.924594082049999955e+01
-9.924961777049999512e+01 1.924608488990000055e+01
-9.924961123459999612e+01 1.924620411420000110e+01
-9.924959623819999877e+01 1.924633147859999838e+01
-9.924941739119999795e+01 1.924642996340000067e+01
-9.924924653319999379e+01 1.924651477820000167e+01
-9.924911616480000021e+01 1.924658886259999946e+01
-9.924890070360000038e+01 1.924673907640000081e+01
-9.924860932660000401e+01 1.924684249579999928e+01
-9.924829630520000023e+01 1.924681551520000156e+01
-9.924818293990000484e+01 1.924677775780000033e+01
-9.924800769440000181e+01 1.924673375009999887e+01
-9.924792268790000094e+01 1.924686681720000081e+01
-9.924783962819999772e+01 1.924697226190000166e+01
-9.924775938259999464e+01 1.924710403679999970e+01
-9.924765064199999642e+01 1.924733938359999996e+01
-9.924760766420000380e+01 1.924746759239999960e+01
-9.924764265700000010e+01 1.924764898700000160e+01
-9.924765012759999649e+01 1.924785626859999965e+01
-9.924759018710000191e+01 1.924808139949999841e+01
-9.924758686190000390e+01 1.924830518170000104e+01
-9.924751168010000413e+01 1.924852741569999992e+01
-9.924746492949999777e+01 1.924873310470000121e+01
-9.924738606190000212e+01 1.924885293410000031e+01
-9.924700194099999351e+01 1.924906685550000063e+01
-9.924683238340000457e+01 1.924917425619999989e+01
-9.924667248139999742e+01 1.924934618580000034e+01
-9.924656898009999395e+01 1.924943397119999844e+01
-9.924647516470000141e+01 1.924946508789999911e+01
-9.924630230389999497e+01 1.924951038749999910e+01
-9.924614096279999842e+01 1.924956581580000048e+01
-9.924594010980000292e+01 1.924965874060000104e+01
-9.924579173249999542e+01 1.924976362459999990e+01
-9.924534411150000324e+01 1.925018821189999940e+01
-9.924528589720000582e+01 1.925027238610000069e+01
-9.924523203580000086e+01 1.925037706519999858e+01
-9.924519976199999860e+01 1.925046940900000081e+01
-9.924521293029999924e+01 1.925060681680000130e+01
-9.924522316329999683e+01 1.925081539540000009e+01
-9.924525023239999655e+01 1.925103787009999934e+01
-9.924521696639999391e+01 1.925129608159999961e+01
-9.924500526159999936e+01 1.925180553179999876e+01
-9.924476550389999829e+01 1.925232664019999973e+01
-9.924478603250000219e+01 1.925244654939999833e+01
-9.924471930110000528e+01 1.925254539559999856e+01
-9.924461223069999960e+01 1.925263542240000092e+01
-9.924458507740000357e+01 1.925273263169999893e+01
-9.924460683930000471e+01 1.925308283100000040e+01
-9.924461925410000163e+01 1.925321196750000041e+01
-9.924465488949999781e+01 1.925335407469999893e+01
-9.924472143270000402e+01 1.925367997289999877e+01
-9.924476529019999305e+01 1.925403390709999840e+01
-9.924480219359999467e+01 1.925439100059999831e+01
-9.924486965830000429e+01 1.925456208350000153e+01
-9.924493670030000203e+01 1.925467480469999870e+01
-9.924511398709999810e+01 1.925494475200000011e+01
-9.924518259929999431e+01 1.925503008900000168e+01
-9.924520484139999610e+01 1.925513229399999915e+01
-9.924524666790000538e+01 1.925525252590000136e+01
-9.924521793060000618e+01 1.925541243320000007e+01
-9.924516389500000457e+01 1.925561008549999897e+01
-9.924509173680000629e+01 1.925579921799999994e+01
-9.924505925249999905e+01 1.925587487649999829e+01
-9.924503402540000252e+01 1.925596083530000158e+01
-9.924493094970000584e+01 1.925605722690000121e+01
-9.924486705140000709e+01 1.925620003979999950e+01
-9.924482125430000679e+01 1.925628490040000074e+01
-9.924481558639999434e+01 1.925635753930000149e+01
-9.924497496530000262e+01 1.925653322959999869e+01
-9.924513820260000330e+01 1.925670023920000062e+01
-9.924523538420000079e+01 1.925680763040000087e+01
-9.924529161969999791e+01 1.925690745249999836e+01
-9.924539255050000008e+01 1.925717474589999867e+01
-9.924538582380000662e+01 1.925734210279999914e+01
-9.924528466980000019e+01 1.925751752629999913e+01
-9.924498221039999635e+01 1.925776246430000072e+01
-9.924445262909999599e+01 1.925816446010000149e+01
-9.924437253989999874e+01 1.925827976609999936e+01
-9.924389485460000060e+01 1.925886217089999874e+01
-9.924388210339999716e+01 1.925894576379999990e+01
-9.924387132290000579e+01 1.925905968460000039e+01
-9.924388825030000305e+01 1.925920067419999882e+01
-9.924399444399999481e+01 1.925940852680000148e+01
-9.924405768430000307e+01 1.925946132210000172e+01
-9.924432843920000380e+01 1.925941627239999931e+01
-9.924438225500000499e+01 1.925937742139999997e+01
-9.924460881170000448e+01 1.925919134789999987e+01
-9.924475977390000025e+01 1.925909274139999994e+01
-9.924491370959999870e+01 1.925900256499999941e+01
-9.924509406010000134e+01 1.925894609150000036e+01
-9.924525724709999963e+01 1.925889807640000129e+01
-9.924540157340000235e+01 1.925890786680000133e+01
-9.924558115489999466e+01 1.925891114279999883e+01
-9.924573632210000085e+01 1.925894140589999992e+01
-9.924587221759999522e+01 1.925899278680000037e+01
-9.924597427839999852e+01 1.925903997269999834e+01
-9.924634819989999812e+01 1.925934678060000138e+01
-9.924681702590000043e+01 1.925972130570000118e+01
-9.924719053370000665e+01 1.926020125410000006e+01
-9.924723653610000440e+01 1.926027731690000167e+01
-9.924719788839999524e+01 1.926032738809999856e+01
-9.924684106380000514e+01 1.926053715160000124e+01
-9.924647817970000574e+01 1.926065465379999964e+01
-9.924629818539999349e+01 1.926074910419999853e+01
-9.924622903649999728e+01 1.926088918350000156e+01
-9.924594006510000099e+01 1.926120014509999834e+01
-9.924572095119999915e+01 1.926156894389999863e+01
-9.924565410699999291e+01 1.926171969259999983e+01
-9.924561715420000496e+01 1.926222486309999837e+01
-9.924556190420000235e+01 1.926254750409999872e+01
-9.924552836079999452e+01 1.926293313869999935e+01
-9.924554267790000495e+01 1.926308872839999964e+01
-9.924563284890000148e+01 1.926337398809999968e+01
-9.924590628090000166e+01 1.926360629230000043e+01
-9.924638301170000432e+01 1.926398389990000126e+01
-9.924699517349999667e+01 1.926449654079999974e+01
-9.924709045989999368e+01 1.926474905879999966e+01
-9.924706197099999372e+01 1.926505799390000107e+01
-9.924702091400000370e+01 1.926552846159999888e+01
-9.924699686409999799e+01 1.926559547520000137e+01
-9.924695791630000485e+01 1.926563959419999961e+01
-9.924666266490000055e+01 1.926572636339999889e+01
-9.924637613689999682e+01 1.926582454360000085e+01
-9.924605165590000411e+01 1.926624449370000036e+01
-9.924600870919999807e+01 1.926631144879999979e+01
-9.924597452689999955e+01 1.926637332250000156e+01
-9.924595162740000376e+01 1.926643738710000164e+01
-9.924593169569999418e+01 1.926650957100000028e+01
-9.924596829450000257e+01 1.926684029720000169e+01
-9.924605608129999723e+01 1.926703377939999839e+01
-9.924607386940000708e+01 1.926717417049999881e+01
-9.924605124309999837e+01 1.926735332730000039e+01
-9.924599482000000705e+01 1.926752880369999943e+01
-9.924589209139999468e+01 1.926766622410000096e+01
-9.924578214999999659e+01 1.926777477519999948e+01
-9.924538641889999724e+01 1.926808717609999988e+01
-9.924532615180000050e+01 1.926813531000000168e+01
-9.924527130010000064e+01 1.926818582949999836e+01
-9.924497252289999949e+01 1.926851790270000109e+01
-9.924487398029999952e+01 1.926865656949999916e+01
-9.924449122330000250e+01 1.926884294110000084e+01
-9.924374329379999438e+01 1.926935116650000168e+01
-9.924359878369999421e+01 1.926950347789999896e+01
-9.924349136639999358e+01 1.926968706410000109e+01
-9.924346782850000181e+01 1.926978988320000141e+01
-9.924349783709999429e+01 1.926997347389999860e+01
-9.924360227130000567e+01 1.927026775030000039e+01
-9.924359868940000240e+01 1.927038918810000112e+01
-9.924364602990000606e+01 1.927069485290000017e+01
-9.924364165800000137e+01 1.927087530920000091e+01
-9.924365754570000320e+01 1.927100810319999979e+01
-9.924367922950000320e+01 1.927118774599999895e+01
-9.924373006710000311e+01 1.927146399329999937e+01
-9.924377240559999791e+01 1.927163769730000098e+01
-9.924382653259999643e+01 1.927178867710000176e+01
-9.924396787899999595e+01 1.927211193959999846e+01
-9.924408227310000541e+01 1.927233358839999866e+01
-9.924430402829999309e+01 1.927245517849999956e+01
-9.924450195910000616e+01 1.927270896830000169e+01
-9.924453105089999383e+01 1.927285686840000167e+01
-9.924461320890000593e+01 1.927290232809999893e+01
-9.924440804149999451e+01 1.927327107050000166e+01
-9.924428441669999756e+01 1.927365312530000097e+01
-9.924415024479999659e+01 1.927394890829999952e+01
-9.924404541030000360e+01 1.927412235219999914e+01
-9.924392443760000049e+01 1.927425891660000090e+01
-9.924385928019999881e+01 1.927437588789999978e+01
-9.924373123430000021e+01 1.927468017500000030e+01
-9.924362634060000232e+01 1.927491597690000091e+01
-9.924353267889999586e+01 1.927517134620000050e+01
-9.924349950820000288e+01 1.927529817710000160e+01
-9.924347871480000549e+01 1.927537048079999948e+01
-9.924346606379999969e+01 1.927548043119999832e+01
-9.924345877300000041e+01 1.927564919570000157e+01
-9.924382721950000530e+01 1.927594391230000070e+01
-9.924397801659999629e+01 1.927588170590000161e+01
-9.924411065360000350e+01 1.927601654160000066e+01
-9.924420884110000429e+01 1.927609114350000041e+01
-9.924445638330000463e+01 1.927621419109999934e+01
-9.924461116380000192e+01 1.927625948480000062e+01
-9.924476254350000204e+01 1.927632442130000001e+01
-9.924488741070000231e+01 1.927620941569999857e+01
-9.924519546279999815e+01 1.927648902749999849e+01
-9.924528018670000051e+01 1.927661632439999906e+01
-9.924535784430000263e+01 1.927679170060000047e+01
-9.924536778120000236e+01 1.927696395339999924e+01
-9.924535570439999788e+01 1.927707379510000152e+01
-9.924525903069999799e+01 1.927759048880000137e+01
-9.924502259209999977e+01 1.927843190400000140e+01
-9.924486963149999497e+01 1.927887850120000124e+01
-9.924480975410000383e+01 1.927906741270000168e+01
-9.924479819549999604e+01 1.927912685040000085e+01
-9.924479092880000053e+01 1.927921890709999886e+01
-9.924480476930000350e+01 1.927932571010000018e+01
-9.924484607569999639e+01 1.927954042560000048e+01
-9.924491282019999971e+01 1.927988689549999890e+01
-9.924493468469999868e+01 1.928007063660000142e+01
-9.924491293170000006e+01 1.928013731240000084e+01
-9.924459156669999516e+01 1.928020469360000178e+01
-9.924443680689999780e+01 1.928024688900000072e+01
-9.924430448850000630e+01 1.928027397370000173e+01
-9.924417521719999513e+01 1.928033148720000156e+01
-9.924405998059999945e+01 1.928041150230000156e+01
-9.924397222100000704e+01 1.928051842200000010e+01
-9.924387173940000650e+01 1.928061471470000043e+01
-9.924376868689999753e+01 1.928070852689999981e+01
-9.924366578400000094e+01 1.928080248670000074e+01
-9.924356288180000263e+01 1.928089644739999997e+01
-9.924345939209999301e+01 1.928098982379999882e+01
-9.924336132029999646e+01 1.928107690699999921e+01
-9.924331420849999574e+01 1.928122294839999995e+01
-9.924330787179999902e+01 1.928135837439999989e+01
-9.924331747050000274e+01 1.928143891190000048e+01
-9.924341966880000143e+01 1.928160782879999857e+01
-9.924350219389999950e+01 1.928171844370000088e+01
-9.924358991520000473e+01 1.928182539250000005e+01
-9.924364365370000485e+01 1.928195098120000139e+01
-9.924362772819999634e+01 1.928206514469999888e+01
-9.924354618350000123e+01 1.928219086900000079e+01
-9.924344516969999574e+01 1.928225870110000173e+01
-9.924331768269999543e+01 1.928233631679999860e+01
-9.924323164439999800e+01 1.928236528920000126e+01
-9.924310934300000042e+01 1.928240647140000164e+01
-9.924292400199999520e+01 1.928246888130000158e+01
-9.924278492380000216e+01 1.928251571310000045e+01
-9.924214882459999387e+01 1.928282313960000138e+01
-9.924202259519999814e+01 1.928290167520000153e+01
-9.924195696719999660e+01 1.928300856970000154e+01
-9.924196487470000250e+01 1.928314793459999876e+01
-9.924201572079999778e+01 1.928326968049999834e+01
-9.924210190760000216e+01 1.928331331569999918e+01
-9.924233356729999400e+01 1.928335007600000139e+01
-9.924283244609999599e+01 1.928376063310000177e+01
-9.924290150890000461e+01 1.928391215350000110e+01
-9.924294405009999309e+01 1.928409427360000095e+01
-9.924283825499999523e+01 1.928412498260000163e+01
-9.924273558599999490e+01 1.928424935259999984e+01
-9.924262133019999510e+01 1.928442222620000024e+01
-9.924192777480000416e+01 1.928547159509999886e+01
-9.924179879019999362e+01 1.928581740350000118e+01
-9.924176208609999605e+01 1.928594450639999991e+01
-9.924172099410000669e+01 1.928608680660000019e+01
-9.924163205620000383e+01 1.928631492970000139e+01
-9.924154302169999653e+01 1.928647790859999844e+01
-9.924128578330000039e+01 1.928667493040000025e+01
-9.924115091150000012e+01 1.928671881720000059e+01
-9.924104133250000359e+01 1.928672499500000015e+01
-9.924094773580000606e+01 1.928672265450000012e+01
-9.924080638620000627e+01 1.928699241209999826e+01
-9.924080129959999397e+01 1.928716465740000174e+01
-9.924082774750000624e+01 1.928730935669999980e+01
-9.924097297900000569e+01 1.928744848950000090e+01
-9.924102078660000359e+01 1.928755950329999891e+01
-9.924101412790000154e+01 1.928798966260000114e+01
-9.924107578669999441e+01 1.928807255899999973e+01
-9.924131554509999376e+01 1.928830885769999881e+01
-9.924149556730000654e+01 1.928852265820000156e+01
-9.924156692939999402e+01 1.928860740960000086e+01
-9.924179149210000617e+01 1.928881987789999997e+01
-9.924189839740000707e+01 1.928890078990000134e+01
-9.924208264220000331e+01 1.928902024949999827e+01
-9.924226999059999343e+01 1.928917361770000127e+01
-9.924237408739999466e+01 1.928923450459999955e+01
-9.924249133569999515e+01 1.928925044609999873e+01
-9.924271608809999634e+01 1.928927536659999831e+01
-9.924276159480000103e+01 1.928936006589999863e+01
-9.924277902810000285e+01 1.928964872179999901e+01
-9.924282461200000682e+01 1.929017134420000090e+01
-9.924299671369999487e+01 1.929143731790000160e+01
-9.924289717569999425e+01 1.929167738689999823e+01
-9.924283689630000538e+01 1.929187061040000017e+01
-9.924266463979999742e+01 1.929227280279999945e+01
-9.924256588279999391e+01 1.929248301330000004e+01
-9.924231703319999554e+01 1.929285555430000088e+01
-9.924225214780000215e+01 1.929290421319999993e+01
-9.924154959179999480e+01 1.929286334300000050e+01
-9.924192150000000368e+01 1.929314416069999893e+01
-9.924177911499999993e+01 1.929332324820000011e+01
-9.924161474310000131e+01 1.929354493909999846e+01
-9.924154185359999758e+01 1.929366150010000069e+01
-9.924150611950000211e+01 1.929379274520000109e+01
-9.924147851509999896e+01 1.929393177580000085e+01
-9.924138461879999795e+01 1.929401848979999912e+01
-9.924122681660000467e+01 1.929404160149999825e+01
-9.924108576010000604e+01 1.929406254090000061e+01
-9.924094522119999340e+01 1.929408633110000082e+01
-9.924082743719999655e+01 1.929417084150000150e+01
-9.924077177329999699e+01 1.929419284600000140e+01
-9.924068085919999760e+01 1.929420012670000162e+01
-9.924063619759999710e+01 1.929418106319999993e+01
-9.924056467539999460e+01 1.929413729330000038e+01
-9.924047557660000507e+01 1.929409742520000037e+01
-9.924037377199999810e+01 1.929405055870000041e+01
-9.924028288739999937e+01 1.929407493560000120e+01
-9.924016624489999572e+01 1.929412076059999848e+01
-9.924014963809999301e+01 1.929413014989999908e+01
-9.923999417509999432e+01 1.929421805020000136e+01
-9.923978538170000263e+01 1.929431811950000153e+01
-9.923965232850000007e+01 1.929438091589999971e+01
-9.923938224779999473e+01 1.929449170470000041e+01
-9.923869364620000511e+01 1.929469904740000175e+01
-9.923862955040000600e+01 1.929470311789999926e+01
-9.923856077310000501e+01 1.929468808320000051e+01
-9.923802995020000139e+01 1.929448812080000053e+01
-9.923801073120000638e+01 1.929447739429999942e+01
-9.923798471199999938e+01 1.929446287309999875e+01
-9.923796714140000574e+01 1.929445372609999865e+01
-9.923789978150000479e+01 1.929442885299999944e+01
-9.923776765009999679e+01 1.929437814210000113e+01
-9.923763563120000697e+01 1.929433722730000156e+01
-9.923747825750000118e+01 1.929431725099999895e+01
-9.923721692099999814e+01 1.929425871640000167e+01
-9.923707164100000000e+01 1.929426847590000094e+01
-9.923693866520000029e+01 1.929431709369999837e+01
-9.923672118870000247e+01 1.929439981890000055e+01
-9.923652681199999392e+01 1.929436870620000022e+01
-9.923637965919999715e+01 1.929441764310000096e+01
-9.923611477379999712e+01 1.929443284010000070e+01
-9.923596852590000594e+01 1.929445637070000075e+01
-9.923590064219999363e+01 1.929450639450000082e+01
-9.923586969859999840e+01 1.929462531169999906e+01
-9.923591823380000676e+01 1.929472024389999874e+01
-9.923602067550000072e+01 1.929483016349999858e+01
-9.923614322459999926e+01 1.929489971110000113e+01
-9.923615815300000520e+01 1.929499624709999850e+01
-9.923609707399999991e+01 1.929510811389999958e+01
-9.923597267719999593e+01 1.929514800700000166e+01
-9.923580426309999325e+01 1.929514307819999885e+01
-9.923567490210000130e+01 1.929509592879999857e+01
-9.923557074510000575e+01 1.929499149700000160e+01
-9.923547385460000214e+01 1.929499577580000036e+01
-9.923538948200000220e+01 1.929510779949999844e+01
-9.923526452080000126e+01 1.929517336239999992e+01
-9.923511983859999930e+01 1.929525521800000121e+01
-9.923490396149999526e+01 1.929539212110000079e+01
-9.923476449209999828e+01 1.929559302639999885e+01
-9.923469180120000033e+01 1.929563415229999990e+01
-9.923462104809999573e+01 1.929565475940000141e+01
-9.923453258429999835e+01 1.929566606330000056e+01
-9.923445003889999327e+01 1.929569041650000116e+01
-9.923438419359999330e+01 1.929574380220000052e+01
-9.923418808579999961e+01 1.929596887769999825e+01
-9.923408945830000505e+01 1.929606689330000080e+01
-9.923399003909999294e+01 1.929616418410000023e+01
-9.923383263750000083e+01 1.929625930930000166e+01
-9.923363564180000651e+01 1.929636103800000058e+01
-9.923345780389999504e+01 1.929646390390000121e+01
-9.923330120800000032e+01 1.929659518160000076e+01
-9.923318663080000590e+01 1.929669917789999900e+01
-9.923263113340000530e+01 1.929749955120000138e+01
-9.923249437440000520e+01 1.929773528120000137e+01
-9.923248291020000522e+01 1.929787653840000061e+01
-9.923252061920000244e+01 1.929801156790000149e+01
-9.923258379790000561e+01 1.929813313289999854e+01
-9.923268996829999367e+01 1.929838481470000033e+01
-9.923272285310000029e+01 1.929852739380000060e+01
-9.923272308159999966e+01 1.929868907279999846e+01
-9.923272312400000317e+01 1.929871891040000165e+01
-9.923272319410000364e+01 1.929876832989999969e+01
-9.923272341370000049e+01 1.929892411220000170e+01
-9.923274075279999806e+01 1.929905466880000020e+01
-9.923278553960000181e+01 1.929918873540000135e+01
-9.923281331239999759e+01 1.929932170569999883e+01
-9.923283162430000459e+01 1.929945614629999895e+01
-9.923284786799999324e+01 1.929958352170000069e+01
-9.923279521829999794e+01 1.929971866169999828e+01
-9.923272603060000563e+01 1.929979946059999918e+01
-9.923271009990000380e+01 1.929988947849999903e+01
-9.923280875490000597e+01 1.929997261060000113e+01
-9.923306498520000218e+01 1.930009808399999827e+01
-9.923321221739999487e+01 1.930009519000000040e+01
-9.923337106959999687e+01 1.930007783719999992e+01
-9.923336212990000149e+01 1.930023173869999908e+01
-9.923339711430000420e+01 1.930081623790000123e+01
-9.923326352690000363e+01 1.930078656519999925e+01
-9.923293801009999981e+01 1.930092316589999868e+01
-9.923276303869999992e+01 1.930104816260000078e+01
-9.923239715190000254e+01 1.930132556739999927e+01
-9.923222882090000496e+01 1.930146850890000110e+01
-9.923297391430000403e+01 1.930181012639999949e+01
-9.923264607439999452e+01 1.930248151949999880e+01
-9.923254747030000544e+01 1.930300044859999886e+01
-9.923233737329999826e+01 1.930298273460000047e+01
-9.923224830549999353e+01 1.930378878519999830e+01
-9.923204221769999833e+01 1.930388102770000103e+01
-9.923198483570000406e+01 1.930427646649999929e+01
-9.923193023589999484e+01 1.930479766159999855e+01
-9.923190460509999866e+01 1.930504231580000152e+01
-9.923169189419999725e+01 1.930520289569999903e+01
-9.923119706219999614e+01 1.930544913519999994e+01
-9.923091373990000363e+01 1.930557297689999885e+01
-9.923061854370000390e+01 1.930568170769999981e+01
-9.923040648699999622e+01 1.930576839160000091e+01
-9.923016500750000546e+01 1.930586405100000036e+01
-9.922992933000000448e+01 1.930601275409999928e+01
-9.922980570379999676e+01 1.930618655290000163e+01
-9.922954920920000177e+01 1.930638185959999831e+01
-9.922936221889999331e+01 1.930647888969999926e+01
-9.922894948229999557e+01 1.930648383140000135e+01
-9.922866704039999775e+01 1.930654878849999889e+01
-9.922789287090000698e+01 1.930685706839999938e+01
-9.922774703010000508e+01 1.930696321650000158e+01
-9.922767661589999477e+01 1.930703164550000039e+01
-9.922766096559999482e+01 1.930706143189999935e+01
-9.922759221479999781e+01 1.930719228379999919e+01
-9.922764625669999816e+01 1.930737866999999852e+01
-9.922771394740000517e+01 1.930760911340000163e+01
-9.922774658420000549e+01 1.930778308160000023e+01
-9.922772335509999664e+01 1.930791431449999962e+01
-9.922761342500000126e+01 1.930806147350000046e+01
-9.922743585409999412e+01 1.930822597579999922e+01
-9.922723953060000213e+01 1.930840784970000001e+01
-9.922691213080000239e+01 1.930864928369999944e+01
-9.922517073420000600e+01 1.930995724650000156e+01
-9.922501754559999654e+01 1.931033573759999911e+01
-9.922493341999999927e+01 1.931059778130000026e+01
-9.922462556360000008e+01 1.931072866819999945e+01
-9.922405266600000573e+01 1.931086044519999945e+01
-9.922392893859999674e+01 1.931089657260000081e+01
-9.922299869610000655e+01 1.931095083530000167e+01
-9.922174046169999428e+01 1.931103796200000033e+01
-9.922130720449999330e+01 1.931106105270000128e+01
-9.922097140569999851e+01 1.931107861970000172e+01
-9.922070782929999666e+01 1.931112981860000133e+01
-9.922066057950000584e+01 1.931114712919999832e+01
-9.922056226249999611e+01 1.931122956600000151e+01
-9.922047180399999888e+01 1.931132268200000013e+01
-9.921992544020000082e+01 1.931226363600000084e+01
-9.921984896189999859e+01 1.931212377199999963e+01
-9.921966344380000180e+01 1.931180594659999983e+01
-9.921942081109999378e+01 1.931144054190000148e+01
-9.921919276600000615e+01 1.931113942019999996e+01
-9.921900515139999754e+01 1.931089283420000058e+01
-9.921887401569999554e+01 1.931073378540000007e+01
-9.921823174610000251e+01 1.930988771539999860e+01
-9.921779545549999568e+01 1.930935290240000057e+01
-9.921719790650000448e+01 1.930877254210000160e+01
-9.921685716090000540e+01 1.930849663869999944e+01
-9.921655919869999707e+01 1.930827704500000053e+01
-9.921641257699999983e+01 1.930817553789999863e+01
-9.921592284860000177e+01 1.930788115589999876e+01
-9.921539464360000693e+01 1.930762109100000146e+01
-9.921485135400000388e+01 1.930740948809999935e+01
-9.921436673380000570e+01 1.930724936900000088e+01
-9.921378822629999661e+01 1.930712408020000126e+01
-9.921330447660000118e+01 1.930701931180000130e+01
-9.921152710139999442e+01 1.930670968089999917e+01
-9.921002948769999819e+01 1.930644107210000016e+01
-9.920931602609999800e+01 1.930631687929999885e+01
-9.920847746409999957e+01 1.930616244289999983e+01
-9.920575217430000237e+01 1.930568187680000136e+01
-9.920567121679999900e+01 1.930566731200000063e+01
-9.920504733490000149e+01 1.930555507260000070e+01
-9.920459027149999542e+01 1.930547076299999887e+01
-9.920435180709999656e+01 1.930542956089999862e+01
-9.920359071500000425e+01 1.930529183359999834e+01
-9.920320315989999926e+01 1.930521724389999960e+01
-9.920272186399999725e+01 1.930509638739999900e+01
-9.920222935249999807e+01 1.930496069240000168e+01
-9.920127118140000277e+01 1.930463908369999970e+01
-9.920018447690000585e+01 1.930417354129999907e+01
-9.919990855039999644e+01 1.930403140960000030e+01
-9.919950579970000604e+01 1.930382394809999980e+01
-9.919908687849999751e+01 1.930359919269999835e+01
-9.919869604320000178e+01 1.930335469239999924e+01
-9.919846031730000391e+01 1.930320347849999862e+01
-9.919810924909999983e+01 1.930299975450000005e+01
-9.919776151320000679e+01 1.930281486679999858e+01
-9.919715768620000063e+01 1.930255921399999863e+01
-9.919671103310000149e+01 1.930240497000000133e+01
